"Total Time (s)","Cycle Elapsed Time (s)","Total Cycles","Elapsed Cycles","Step","Total Cycle Count(Linear Waveform)","Total Cycle Count(Rotary Waveform)","Position(Linear:Position) (mm)","Load(Linear:Load) (N)","Displacement(Linear:Digital Position) (mm)","Rotation(Rotary:Rotation) (deg)","Torque(Rotary:Torque) (N·m)","Rotary Displacement(Rotary:Digital Rotation) (deg)",
0,0,1,1,1,1,1,20.4001517304173,-0.27078203856945,20.3989322534119,-30.0150293111801,-0.0983661040663719,-30.0167405605316,
1,1,1,1,1,1,1,20.4001517304173,-0.26642344892025,20.3989322534119,-29.967103600502,0.0127930194139481,-29.9688148498535,
1.2,1.2,1,1,1,1,1,20.4001517304173,-0.146711245179176,20.3989322534119,-29.9372988939285,0.122644565999508,-29.9390208721161,
1.4,1.4,1,1,1,1,1,20.4001517304173,-0.00794418156147003,20.3989322534119,-29.8790413141251,0.252408441156149,-29.8807525634766,
1.52,1.52,1,1,1,1,1,20.4001517304173,0.128541141748428,20.3989322534119,-29.8200756311417,0.382261071354151,-29.8217868804932,
1.64,1.64,1,1,1,1,1,20.4001517304173,0.213459134101868,20.3989322534119,-29.768802523613,0.491539109498262,-29.7704815864563,
1.84,1.84,1,1,1,1,1,20.4001517304173,0.25521032512188,20.3989322534119,-29.6991401910782,0.612329877912998,-29.7010552883148,
1.96,1.96,1,1,1,1,1,20.4001517304173,0.456906855106354,20.3989322534119,-29.6361297369003,0.717768166214228,-29.6378409862518,
2.08,2.08,1,1,1,1,1,20.4001517304173,0.557685270905495,20.3989322534119,-29.5810317993164,0.82921888679266,-29.5827484130859,
2.24,2.24,1,1,1,1,1,20.4001517304173,0.726440921425819,20.3989322534119,-29.510178565979,0.935003720223904,-29.5118629932404,
2.36,2.36,1,1,1,1,1,20.4001517304173,0.696722418069839,20.3989322534119,-29.4611424207687,1.06626870110631,-29.4628322124481,
2.52,2.52,1,1,1,1,1,20.4001517304173,0.930866226553917,20.3989322534119,-29.3756818771362,1.19315506890416,-29.3773984909058,
2.6,2.6,1,1,1,1,1,20.4001517304173,0.968072563409805,20.3989322534119,-29.3340593576431,1.30121689289808,-29.3358671665192,
2.72,2.72,1,1,1,1,1,20.4001517304173,1.22078694403172,20.3989322534119,-29.2592686414719,1.42673747614026,-29.2609691619873,
2.8,2.8,1,1,1,1,1,20.4001517304173,1.21197663247585,20.3989322534119,-29.1935276985168,1.57957468181849,-29.1952335834503,
2.88,2.88,1,1,1,1,1,20.4001517304173,1.38566829264164,20.3989322534119,-29.1379952430725,1.6838975250721,-29.1398513317108,
2.96,2.96,1,1,1,1,1,20.4001517304173,1.45272351801395,20.3989322534119,-29.0702694654465,1.80363468825817,-29.0719592571259,
3.04,3.04,1,1,1,1,1,20.4001517304173,1.52350403368473,20.3989322534119,-29.0060359239578,1.93695779889822,-29.0077471733093,
3.16,3.16,1,1,1,1,1,20.4001517304173,1.74327753484249,20.3989322534119,-28.9157903194428,2.06958744674921,-28.9174425601959,
3.24,3.24,1,1,1,1,1,20.4001517304173,1.85483135282993,20.3989322534119,-28.8556498289108,2.17080749571323,-28.857296705246,
3.4,3.4,1,1,1,1,1,20.4001517304173,2.15142965316772,20.3989322534119,-28.7550777196884,2.2913821041584,-28.7567138671875,
3.52,3.52,1,1,1,1,1,20.4001517304173,2.31224112212658,20.3989322534119,-28.6715322732925,2.39203721284866,-28.6732757091522,
3.64,3.64,1,1,1,1,1,20.4001517304173,2.50626355409622,20.3989322534119,-28.6030501127243,2.49692648649216,-28.6046755313873,
3.84,3.84,1,1,1,1,1,20.4001517304173,2.88025476038456,20.3989322534119,-28.4971618652344,2.64191683381796,-28.4988784790039,
4.08,4.08,1,1,1,1,1,20.4001517304173,3.19250859320164,20.3989322534119,-28.3842569589615,2.7601720765233,-28.3859574794769,
4.28,4.28,1,1,1,1,1,20.4001517304173,3.48083674907684,20.3989322534119,-28.2974177598953,2.87625901401043,-28.2991290092468,
4.56,4.56,1,1,1,1,1,20.4001517304173,3.76142561435699,20.3989322534119,-28.1872701644897,2.99355760216713,-28.1889653205872,
4.76,4.76,1,1,1,1,1,20.4001517304173,3.96650284528732,20.3989322534119,-28.099604845047,3.1062439084053,-28.1013107299805,
5,5,1,1,1,1,1,20.4001517304173,4.09053638577461,20.3989322534119,-27.9832720756531,3.23562622070313,-27.9850208759308,
5.2,5.2,1,1,1,1,1,20.4001517304173,4.30643558502197,20.3989322534119,-27.8799158334732,3.34773026406765,-27.8816270828247,
5.36,5.36,1,1,1,1,1,20.4001517304173,4.49533574283123,20.3989322534119,-27.8120183944702,3.45769636332989,-27.81378865242,
5.52,5.52,1,1,1,1,1,20.4001517304173,4.6941265463829,20.3989322534119,-27.7245461940765,3.56201194226742,-27.7263271808624,
5.64,5.64,1,1,1,1,1,20.4001517304173,4.82480973005295,20.3989322534119,-27.6645290851593,3.66534925997257,-27.6662135124207,
5.84,5.84,1,1,1,1,1,20.4001517304173,5.07297925651073,20.3989322534119,-27.5606793165207,3.79823967814446,-27.5624549388886,
6,6,1,1,1,1,1,20.4001517304173,5.30688092112541,20.3989322534119,-27.4796766042709,3.91264893114567,-27.4813556671143,
6.16,6.16,1,1,1,1,1,20.4001517304173,5.49392774701118,20.3989322534119,-27.3870760202408,4.01715636253357,-27.3887872695923,
6.36,6.36,1,1,1,1,1,20.4001517304173,5.75456768274307,20.3989322534119,-27.277255654335,4.13548685610294,-27.2789561748505,
6.52,6.52,1,1,1,1,1,20.4001517304173,5.85362315177917,20.3989322534119,-27.1824234724045,4.24159318208694,-27.184134721756,
6.68,6.68,1,1,1,1,1,20.4001517304173,5.97214326262474,20.3989322534119,-27.0915555953979,4.35377843677998,-27.0932722091675,
6.84,6.84,1,1,1,1,1,20.4001517304173,6.15157186985016,20.3989322534119,-27.0050489902496,4.46495376527309,-27.0067656040192,
7.04,7.04,1,1,1,1,1,20.4001517304173,6.4545776695013,20.3989322534119,-26.9032859802246,4.59103509783745,-26.9049918651581,
7.2,7.2,1,1,1,1,1,20.4001517304173,6.66667707264423,20.3989322534119,-26.821408867836,4.69510704278946,-26.8230879306793,
7.4,7.4,1,1,1,1,1,20.4001517304173,6.94648362696171,20.3989322534119,-26.7150002717972,4.81213107705116,-26.7166578769684,
7.6,7.6,1,1,1,1,1,20.4001517304173,7.18274153769016,20.3989322534119,-26.6141545772552,4.9212858080864,-26.6158175468445,
7.8,7.8,1,1,1,1,1,20.4001517304173,7.46587291359901,20.3989322534119,-26.5171283483505,5.02182617783546,-26.518839597702,
7.96,7.96,1,1,1,1,1,20.4001517304173,7.67105259001255,20.3989322534119,-26.4446818828583,5.12678995728493,-26.4463770389557,
8.16,8.16,1,1,1,1,1,20.4001517304173,8.00167210400105,20.3989322534119,-26.3477629423141,5.23082204163074,-26.3494741916656,
8.4,8.4,1,1,1,1,1,20.4001517304173,8.40203836560249,20.3989322534119,-26.2309688329697,5.3534671664238,-26.2326908111572,
8.6,8.6,1,1,1,1,1,20.4001517304173,8.80932435393333,20.3989322534119,-26.1417210102081,5.45748323202133,-26.1434590816498,
8.8,8.8,1,1,1,1,1,20.4001517304173,9.24880616366863,20.3989322534119,-26.0328608751297,5.56663237512112,-26.0346257686615,
9,9,1,1,1,1,1,20.4001517304173,9.59829427301884,20.3989322534119,-25.9446322917938,5.67168109118938,-25.9463489055634,
9.2,9.2,1,1,1,1,1,20.4001517304173,9.91063192486763,20.3989322534119,-25.8359652757645,5.77868968248367,-25.837676525116,
9.44,9.44,1,1,1,1,1,20.4001517304173,10.1910810917616,20.3989322534119,-25.7261073589325,5.90748935937881,-25.7277595996857,
9.68,9.68,1,1,1,1,1,20.4001517304173,10.4355625808239,20.3989322534119,-25.6206697225571,6.02147243916988,-25.6224346160889,
9.92,9.92,1,1,1,1,1,20.4001517304173,10.5390604585409,20.3989322534119,-25.5281335115433,6.12509250640869,-25.529876947403,
10.16,10.16,1,1,1,1,1,20.4001517304173,10.5320755392313,20.3989322534119,-25.4206842184067,6.20532780885696,-25.4223525524139,
10.44,10.44,1,1,1,1,1,20.4004396208449,10.5443131178617,20.3992219319793,-25.3100484609604,6.31907135248184,-25.3117489814758,
10.68,10.68,1,1,1,1,1,20.4025818117281,10.5055142194033,20.4013641228661,-25.2098250389099,6.41466453671455,-25.2115309238434,
10.96,10.96,1,1,1,1,1,20.4036082036872,10.5768069624901,20.4023887266876,-25.09421646595,6.5454788506031,-25.0959277153015,
11.24,11.24,1,1,1,1,1,20.4036082036872,10.6746237725019,20.4023887266876,-24.9786669015884,6.64509981870651,-24.9803996086121,
11.52,11.52,1,1,1,1,1,20.4036082036872,10.7192248106003,20.4023887266876,-24.8859697580338,6.74971714615822,-24.8876810073853,
11.8,11.8,1,1,1,1,1,20.4036082036872,10.6554292142391,20.4023887266876,-24.7821682691574,6.81229904294014,-24.7838795185089,
11.88,11.88,1,1,1,1,1,20.4036082036872,10.7319094240665,20.4023887266876,-24.759219288826,6.83880150318146,-24.7609305381775,
12.12,12.12,1,1,1,1,1,20.4036082036872,10.6872245669365,20.4023887266876,-24.6721708774567,6.9161631166935,-24.6738767623901,
12.44,12.44,1,1,1,1,1,20.4036082036872,10.7115786522627,20.4023887266876,-24.5614814758301,7.00730830430985,-24.5631980895996,
12.72,12.72,1,1,1,1,1,20.4036082036872,10.631512850523,20.4023887266876,-24.4567841291428,7.08193331956863,-24.4584953784943,
13.08,13.08,1,1,1,1,1,20.4036082036872,10.725948959589,20.4023887266876,-24.3419587612152,7.1675717830658,-24.3436753749847,
13.44,13.44,1,1,1,1,1,20.4036082036872,10.6832012534142,20.4023887266876,-24.2328786849976,7.2500541806221,-24.234584569931,
13.8,13.8,1,1,1,1,1,20.4036082036872,10.7209198176861,20.4023887266876,-24.1238039731979,7.32888504862785,-24.1255152225494,
14.24,14.24,1,1,1,1,1,20.4036082036872,10.6401927769184,20.4023887266876,-24.0157860517502,7.38545134663582,-24.0174973011017,
14.8,14.8,1,1,1,1,1,20.4036082036872,10.4929786175489,20.4023887266876,-23.9103806018829,7.40749761462212,-23.9119791984558,
15.6,15.6,1,1,1,1,1.25,20.4004181631733,10.2266576141119,20.3991933217504,-23.8067883253098,7.38713443279266,-23.8084995746613,
16.48,16.48,1,1,1,1,1.25,20.400226832268,9.99906100332737,20.3990073552627,-23.7057495117188,7.3173351585865,-23.7074768543243,
17.52,17.52,1,1,1,1,1.25,20.400226832268,9.70139168202877,20.3990073552627,-23.6385655403137,7.21318572759628,-23.6402821540833,
18.16,18.16,1,1,1,1,1.25,20.400226832268,9.47332940995693,20.3990073552627,-23.6191999912262,7.13231638073921,-23.6208951473236,
18.28,18.28,1,1,1,1,1.25,20.400226832268,9.45028848946095,20.3990073552627,-23.6206805706024,7.1102187037468,-23.622407913208,
18.44,18.44,1,1,1,1,1.25,20.400226832268,9.38803888857365,20.3990073552627,-23.6191838979721,7.07348585128784,-23.6209058761597,
18.6,18.6,1,1,1,1,1.25,20.400226832268,9.32169146835804,20.3990073552627,-23.6207288503647,7.04756826162338,-23.6224508285522,
19.28,19.28,1,1,1,1,1.25,20.400226832268,9.16099175810814,20.3990073552627,-23.6318224668503,6.94337785243988,-23.6335337162018,
19.8,19.8,1,1,1,1,1.25,20.400226832268,8.95815901458263,20.3990073552627,-23.6436027288437,6.83853998780251,-23.6453354358673,
20.24,20.24,1,1,1,1,1.25,20.400226832268,8.76355916261673,20.3990073552627,-23.6655807495117,6.73848688602448,-23.6672973632813,
20.68,20.68,1,1,1,1,1.25,20.4031432874688,8.53771343827248,20.4019184460505,-23.7006425857544,6.62549138069153,-23.7023270130157,
20.96,20.96,1,1,1,1,1.25,20.4036403901946,8.48598778247833,20.402420913195,-23.7314933538437,6.52438625693321,-23.7332046031952,
21.32,21.32,1,1,1,1,1.25,20.4036403901946,8.27882438898087,20.402420913195,-23.7754440307617,6.40014931559563,-23.7771391868591,
21.6,21.6,1,1,1,1,1.25,20.4036403901946,8.03010538220406,20.402420913195,-23.8193625211716,6.26601725816727,-23.8210737705231,
21.84,21.84,1,1,1,1,1.25,20.4036403901946,7.85121694207191,20.402420913195,-23.8731837272644,6.14527091383934,-23.8749003410339,
22,22,1,1,1,1,1.25,20.4036403901946,7.78058543801308,20.402420913195,-23.909318447113,6.04058280587196,-23.9110565185547,
22.16,22.16,1,1,1,1,1.25,20.4036403901946,7.64721073210239,20.402420913195,-23.9683002233505,5.93207180500031,-23.9700436592102,
22.28,22.28,1,1,1,1,1.25,20.4036403901946,7.43084587156773,20.402420913195,-24.0160113573074,5.81726096570492,-24.0175187587738,
22.4,22.4,1,1,1,1,1.25,20.4036403901946,7.28669576346874,20.402420913195,-24.0593504905701,5.70038557052612,-24.0610456466675,
22.48,22.48,1,1,1,1,1.25,20.4036403901946,7.18856230378151,20.402420913195,-24.1054201126099,5.59200718998909,-24.1071259975433,
22.6,22.6,1,1,1,1,1.25,20.4036403901946,6.94685615599155,20.402420913195,-24.1707748174667,5.47799505293369,-24.172625541687,
22.72,22.72,1,1,1,1,1.25,20.4036403901946,6.83596357703209,20.402420913195,-24.2373365163803,5.34921810030937,-24.2390906810761,
22.84,22.84,1,1,1,1,1.25,20.4036403901946,6.61841593682766,20.402420913195,-24.2891836166382,5.24657852947712,-24.2911148071289,
23,23,1,1,1,1,1.25,20.4036403901946,6.4407754689455,20.402420913195,-24.3498069047928,5.12418560683727,-24.3515396118164,
23.2,23.2,1,1,1,1,1.25,20.4036403901946,6.25298358500004,20.402420913195,-24.4141262769699,5.02320341765881,-24.4158375263214,
23.44,23.44,1,1,1,1,1.25,20.4035527713689,6.12357631325722,20.4023332943691,-24.4897753000259,4.92058284580708,-24.4914972782135,
23.76,23.76,1,1,1,1,1.25,20.400695324765,5.87960705161095,20.3994758477605,-24.58416223526,4.80828545987606,-24.5858788490295,
23.96,23.96,1,1,1,1,1.25,20.4000873574025,5.74637204408646,20.3988660922577,-24.6425807476044,4.6992365270853,-24.6442973613739,
24.16,24.16,1,1,1,1,1.25,20.4000873574025,5.62452711164951,20.3988660922577,-24.716362953186,4.59034703671932,-24.7180795669556,
24.32,24.32,1,1,1,1,1.25,20.4000873574025,5.50076365470886,20.3988660922577,-24.7642886638641,4.47943098843098,-24.7660052776337,
24.52,24.52,1,1,1,1,1.25,20.4000873574025,5.23540191352367,20.3988660922577,-24.8509562015533,4.36090379953384,-24.8526728153229,
24.68,24.68,1,1,1,1,1.25,20.4000873574025,5.09570352733135,20.3988660922577,-24.9170726537704,4.2357575148344,-24.9187839031219,
24.84,24.84,1,1,1,1,1.25,20.4000873574025,4.98224981129169,20.3988660922577,-24.9824327230453,4.10743914544582,-24.9841439723969,
25.04,25.04,1,1,1,1,1.25,20.4000873574025,4.9564428627491,20.3988660922577,-25.0622498989105,3.96873652935028,-25.0639986991882,
25.2,25.2,1,1,1,1,1.25,20.4000873574025,4.88542020320892,20.3988660922577,-25.116366147995,3.8684505969286,-25.1180827617645,
25.36,25.36,1,1,1,1,1.25,20.4000873574025,4.74442727863789,20.3988660922577,-25.1899123191834,3.76672707498074,-25.1917040348053,
25.56,25.56,1,1,1,1,1.25,20.4000873574025,4.62746247649193,20.3988660922577,-25.2678036689758,3.66356521844864,-25.2695202827454,
25.76,25.76,1,1,1,1,1.25,20.4000873574025,4.53784130513668,20.3988660922577,-25.3533500432968,3.52464988827705,-25.3550612926483,
25.96,25.96,1,1,1,1,1.25,20.4000873574025,4.42388467490673,20.3988660922577,-25.4232805967331,3.40382419526577,-25.4249918460846,
26.12,26.12,1,1,1,1,1.25,20.4000873574025,4.3835025280714,20.3988660922577,-25.496386885643,3.3034086227417,-25.4980981349945,
26.28,26.28,1,1,1,1,1.25,20.4005987652427,4.20353375375271,20.3989733806159,-25.5745786428452,3.18528637290001,-25.5763220787048,
26.48,26.48,1,1,1,1,1.25,20.402385116405,4.11323271691799,20.4007579436418,-25.6597763299942,3.04627120494843,-25.6614983081818,
26.64,26.64,1,1,1,1,1.25,20.4034562118466,3.95206734538078,20.4021866669461,-25.729798078537,2.94341631233692,-25.7315254211426,
26.76,26.76,1,1,1,1,1.25,20.4034562118466,3.8599967956543,20.4022474636825,-25.7936829328537,2.83395312726498,-25.7952976226807,
26.92,26.92,1,1,1,1,1.25,20.4034562118466,3.73081304132938,20.4022474636825,-25.8719497919083,2.70882192999125,-25.8736503124237,
27.08,27.08,1,1,1,1,1.25,20.4034562118466,3.58355231583118,20.4022474636825,-25.9509140253067,2.59045492857695,-25.9526467323303,
27.24,27.24,1,1,1,1,1.25,20.4034562118466,3.46505083143711,20.4016609539906,-26.0351461172104,2.48324573040009,-26.0369217395782,
27.4,27.4,1,1,1,1,1.25,20.4026247270714,3.24415974318981,20.4002340188256,-26.1077427864075,2.36312989145517,-26.1093842983246,
27.56,27.56,1,1,1,1,1.25,20.4011960037694,3.09799797832966,20.3988553634218,-26.1922752857208,2.25053858011961,-26.1939918994904,
27.72,27.72,1,1,1,1,1.25,20.4001410015815,3.03102657198906,20.3988553634218,-26.2760782241821,2.14360821992159,-26.2777948379517,
27.84,27.84,1,1,1,1,1.25,20.4001410015815,2.87449918687344,20.3988553634218,-26.3424950838089,2.04348880797625,-26.3442063331604,
28,28,1,1,1,1,1.25,20.4001410015815,2.70294956862926,20.3988553634218,-26.4144641160965,1.92961934953928,-26.416175365448,
28.16,28.16,1,1,1,1,1.25,20.4001410015815,2.56277620792389,20.3988553634218,-26.4996349811554,1.8196253105998,-26.501362323761,
28.32,28.32,1,1,1,1,1.25,20.4001410015815,2.4090614169836,20.3988553634218,-26.5808039903641,1.70999504625797,-26.5824508666992,
28.44,28.44,1,1,1,1,1.25,20.4001410015815,2.20190733671188,20.3988553634218,-26.6475802659988,1.60048548132181,-26.6492915153503,
28.6,28.6,1,1,1,1,1.25,20.4001410015815,2.08386220037937,20.3988553634218,-26.7305088043213,1.49567807093263,-26.7322361469269,
28.72,28.72,1,1,1,1,1.25,20.4001410015815,1.96714885532856,20.3988553634218,-26.7992162704468,1.38048660010099,-26.8009865283966,
28.88,28.88,1,1,1,1,1.25,20.4001410015815,1.79173424839973,20.3988553634218,-26.8831264972687,1.26954093575478,-26.8847680091858,
29,29,1,1,1,1,1.25,20.4001410015815,1.68305821716785,20.3988553634218,-26.9539850950241,1.16817411035299,-26.9557070732117,
29.16,29.16,1,1,1,1,1.25,20.4001410015815,1.58173032104969,20.3988553634218,-27.0454108715057,1.04455342516303,-27.0470201969147,
29.32,29.32,1,1,1,1,1.25,20.4001410015815,1.44670717418194,20.3988553634218,-27.1303671598434,0.930400658398867,-27.1319925785065,
29.48,29.48,1,1,1,1,1.25,20.4001410015815,1.34450383484364,20.3988553634218,-27.224308848381,0.819866452366114,-27.2260630130768,
29.6,29.6,1,1,1,1,1.25,20.4001410015815,1.21292658150196,20.3988553634218,-27.3068565130234,0.708772335201502,-27.3085677623749,
29.76,29.76,1,1,1,1,1.25,20.4001410015815,1.13997608423233,20.3997744670243,-27.4064683914185,0.581987388432026,-27.408185005188,
29.88,29.88,1,1,1,1,1.25,20.4001410015815,1.05802901089191,20.4008455624678,-27.4869078397751,0.481306482106447,-27.4886190891266,
30.04,30.04,1,1,1,1,1.5,20.4003895529445,0.926284119486809,20.402215277175,-27.5798356533051,0.347855500876904,-27.5816166400909,
30.16,30.16,1,1,1,1,1.5,20.4014606483861,0.843806192278862,20.402215277175,-27.6557904481888,0.245412811636925,-27.6574909687042,
30.28,30.28,1,1,1,1,1.5,20.4025317438277,0.740503892302513,20.402215277175,-27.730393409729,0.14411136507988,-27.7320671081543,
30.44,30.44,1,1,1,1,1.5,20.4024655826735,0.709276646375656,20.402215277175,-27.8264486789703,0.0194968655705452,-27.8281223773956,
30.6,30.6,1,1,1,1,1.5,20.4010368593716,0.509126111865044,20.402215277175,-27.9111313819885,-0.0887331552803516,-27.912837266922,
30.72,30.72,1,1,1,1,1.5,20.4002053745964,0.487323850393295,20.402215277175,-27.9936468601227,-0.20067049190402,-27.9953634738922,
30.84,30.84,1,1,1,1,1.5,20.4002053745964,0.394908711314201,20.402215277175,-28.0700415372849,-0.300857424736023,-28.0717527866364,
31,31,1,1,1,1,1.5,20.4002053745964,0.200942158699036,20.402215277175,-28.1700450181961,-0.423034094274044,-28.1718313694,
31.12,31.12,1,1,1,1,1.5,20.4010601051825,0.122534111142159,20.402215277175,-28.2587510347366,-0.550868734717369,-28.2604622840881,
31.24,31.24,1,1,1,1,1.5,20.4021312006242,-0.0418536365032196,20.402215277175,-28.3449786901474,-0.681939721107483,-28.3469045162201,
31.36,31.36,1,1,1,1,1.5,20.4032022960658,-0.141030177474022,20.402215277175,-28.4319519996643,-0.801489967852831,-28.4335827827454,
31.48,31.48,1,1,1,1,1.5,20.402438760584,-0.256448984146118,20.402215277175,-28.5281521081924,-0.936531741172075,-28.5299062728882,
31.6,31.6,1,1,1,1,1.5,20.4013676651424,-0.425763428211212,20.402215277175,-28.6162465810776,-1.06072714552283,-28.6179578304291,
31.72,31.72,1,1,1,1,1.5,20.4002965697008,-0.50961971282959,20.402215277175,-28.7048989534378,-1.16347959265113,-28.7066102027893,
31.84,31.84,1,1,1,1,1.5,20.400173188089,-0.641420483589172,20.402215277175,-28.7911266088486,-1.26978037878871,-28.792816400528,
31.96,31.96,1,1,1,1,1.5,20.400173188089,-0.702515244483948,20.402215277175,-28.8801276683807,-1.37452688068151,-28.8818657398224,
32.08,32.08,1,1,1,1,1.5,20.4006524094218,-0.834185630083084,20.402215277175,-28.9729803800583,-1.47606004029512,-28.9746916294098,
32.24,32.24,1,1,1,1,1.5,20.4020811327237,-0.946735963225365,20.402215277175,-29.0748506784439,-1.58580634742975,-29.0766263008118,
