Time,Rotation,Torque,Folder,Theta,TestTorque,DR
0,0,0.0124570913612843,0-180,0,0.0124570913612843,-0.00418424606323247
0.08,0.000177025795000674,0.00827284529805183,0-180,0,0.00827284529805183,0.0685343518853188
0.12,0.0243544578553028,0.0768071971833706,0-180,0,0.0768071971833706,0.19405810162425
0.24,0.0866568088532027,0.270865298807621,0-180,0,0.270865298807621,0.14394735917449
0.32,0.142881274223402,0.414812657982111,0-180,0,0.414812657982111,0.18816776573658
0.4,0.216545462608401,0.602980423718691,0-180,0,0.602980423718691,0.162273459136486
0.48,0.2901935577393,0.765253882855177,0-180,0,0.765253882855177,0.149071402847767
0.56,0.3733152151108,0.914325285702944,0-180,0,0.914325285702944,0.154339894652366
0.64,0.4546397924424,1.06866518035531,0-180,0,1.06866518035531,0.12995256111026
0.72,0.537085533142101,1.19861774146557,0-180,0,1.19861774146557,0.13561062514782
0.8,0.616081953048703,1.33422836661339,0-180,0,1.33422836661339,0.1446352340281
0.88,0.692578554153503,1.47886360064149,0-180,0,1.47886360064149,0.1422175206244
0.96,0.774208903312701,1.62108112126589,0-180,0,1.62108112126589,0.1328594982624
1.04,0.853028297424402,1.75394061952829,0-180,0,1.75394061952829,0.16018822789193
1.12,0.939341783523602,1.91412884742022,0-180,0,1.91412884742022,0.11384598910808
1.2,1.01793050766,2.0279748365283,0-180,0,2.0279748365283,0.11041127145291
1.28,1.0999041795731,2.13838610798121,0-180,0,2.13838610798121,0.10275971144437
1.36,1.1874783039093,2.24114581942558,0-180,0,2.24114581942558,0.10059587657452
1.44,1.2645971775055,2.3417416960001,0-180,0,2.3417416960001,0.10359734296799
1.52,1.351672410965,2.44533903896809,0-180,0,2.44533903896809,0.16997270286083
1.64,1.486560702324,2.61531174182892,0-180,0,2.61531174182892,0.10826177895069
1.72,1.5946644544602,2.72357352077961,0-180,0,2.72357352077961,0.18425807356834
1.84,1.7103803157807,2.90783159434795,0-180,0,2.90783159434795,0.11459868401289
1.92,1.7923325300217,3.02243027836084,0-180,0,3.02243027836084,0.11014100164175
2,1.8745368719101,3.13257128000259,0-180,0,3.13257128000259,0.04807524383068
2.04,1.9167065620423,3.18064652383327,0-180,0,3.18064652383327,0.05348064005375
2.08,1.956821680069,3.23412716388702,0-180,0,3.23412716388702,0.13301223516465
2.16,2.0360434055329,3.36713939905167,0-180,0,3.36713939905167,0.14224871993065
2.28,2.1582072973252,3.50938811898232,0-180,0,3.50938811898232,0.14692433178424
2.36,2.2483831644059,3.65631245076656,0-180,0,3.65631245076656,0.11312179267407
2.44,2.3312902450562,3.76943424344063,0-180,0,3.76943424344063,0.15530847012996
2.56,2.4519735574723,3.92474271357059,0-180,0,3.92474271357059,0.1503199338913
2.68,2.5766801834107,4.07506264746189,0-180,0,4.07506264746189,0.106766447424889
2.76,2.6623392105103,4.18182909488678,0-180,0,4.18182909488678,0.14024674892426
2.88,2.7730661630631,4.32207584381104,0-180,0,4.32207584381104,0.14912597835063
2.96,2.8584408760071,4.47120182216167,0-180,0,4.47120182216167,0.14596246182919
3.08,2.9771339893341,4.61716428399086,0-180,0,4.61716428399086,0.100452080369
3.16,3.0502510070801,4.71761636435986,0-180,0,4.71761636435986,0.12410245835781
3.24,3.1331312656403,4.84171882271767,0-180,0,4.84171882271767,0.14791786670684
3.36,3.2583850622177,4.98963668942451,0-180,0,4.98963668942451,0.11066198349
3.48,3.3750289678574,5.10029867291451,0-180,0,5.10029867291451,0.11108815670013
3.56,3.4554415941239,5.21138682961464,0-180,0,5.21138682961464,0.1317922025919
3.68,3.5677778720856,5.34317903220654,0-180,0,5.34317903220654,0.10272227227687
3.76,3.6511945724488,5.44590130448341,0-180,0,5.44590130448341,0.10575763881207
3.84,3.7364673614502,5.55165894329548,0-180,0,5.55165894329548,0.10168142616749
3.92,3.8190150260926,5.65334036946297,0-180,0,5.65334036946297,0.1053474843502
4.04,3.9380300045014,5.75868785381317,0-180,0,5.75868785381317,0.11662729084492
4.16,4.0584611892701,5.87531514465809,0-180,0,5.87531514465809,0.12446269392967
4.28,4.1802388429642,5.99977783858776,0-180,0,5.99977783858776,0.1325037330389
4.4,4.2991197109223,6.13228157162666,0-180,0,6.13228157162666,0.1282200217247
4.52,4.4153451919556,6.26050159335136,0-180,0,6.26050159335136,0.0990360975265503
4.6,4.4940304756165,6.35953769087791,0-180,0,6.35953769087791,0.0737972557544797
4.64,4.5379596948624,6.43333494663239,0-180,0,6.43333494663239,0.139124691486351
4.76,4.6573394536972,6.57245963811874,0-180,0,6.57245963811874,0.10327845811844
4.88,4.7702604532242,6.67573809623718,0-180,0,6.67573809623718,0.1505620777607
5,4.8884814977646,6.82630017399788,0-180,0,6.82630017399788,0.12284964323044
5.12,4.9980068206787,6.94914981722832,0-180,0,6.94914981722832,0.11944845318794
5.2,5.092248916626,7.06859827041626,0-180,0,7.06859827041626,0.127754360437391
5.32,5.2124279737473,7.19635263085365,0-180,0,7.19635263085365,0.13019144535065
5.44,5.3317701816559,7.3265440762043,0-180,0,7.3265440762043,0.11743158102036
5.56,5.4484462738037,7.44397565722466,0-180,0,7.44397565722466,0.11869221925735
5.68,5.5693280696869,7.56266787648201,0-180,0,7.56266787648201,0.145623087883
5.8,5.6892120838166,7.70829096436501,0-180,0,7.70829096436501,0.11473000049591
5.92,5.8018648624421,7.82302096486092,0-180,0,7.82302096486092,0.118816643953321
6.04,5.9189003705979,7.94183760881424,0-180,0,7.94183760881424,0.11072158813477
6.16,6.0369765758515,8.05255919694901,0-180,0,8.05255919694901,0.10673478245735
6.28,6.1558681726456,8.15929397940636,0-180,0,8.15929397940636,0.12419000267982
6.36,6.2384802103043,8.28348398208618,0-180,0,8.28348398208618,0.16470178961754
6.48,6.3705790042878,8.44818577170372,0-180,0,8.44818577170372,0.10511577129364
6.6,6.482464671135,8.55330154299736,0-180,0,8.55330154299736,0.0645115971565193
6.68,6.5586018562317,8.61781314015388,0-180,0,8.61781314015388,-0.0280424952507001
6.72,6.5700387954712,8.58977064490318,0-180,0,8.58977064490318,-0.00268146395682933
6.76,6.5940016508103,8.58708918094635,0-180,0,8.58708918094635,-0.0655293464660609
6.88,6.6363269090653,8.52155983448029,0-180,0,8.52155983448029,-0.0600039958953893
6.92,6.6349536180497,8.4615558385849,0-180,0,8.4615558385849,-0.0056803226470894
6.96,6.6349536180497,8.45587551593781,0-180,0,8.45587551593781,0
6.96,6.6349536180497,8.45587551593781,0-180,0,8.45587551593781,-0.042444467544561
7,6.6349536180497,8.41343104839325,0-180,0,8.41343104839325,-0.0443197786807996
7.04,6.6349536180497,8.36911126971245,0-180,0,8.36911126971245,-0.0602744519710594
7.08,6.6349536180497,8.30883681774139,0-180,0,8.30883681774139,-0.0212386250495911
7.12,6.625657081604,8.2875981926918,0-180,0,8.2875981926918,-0.0928945839404989
7.16,6.6108137369156,8.1947036087513,0-180,0,8.1947036087513,-0.0357739627361298
7.2,6.5898925065995,8.15892964601517,0-180,0,8.15892964601517,-0.100395083427431
7.24,6.5735739469529,8.05853456258774,0-180,0,8.05853456258774,-0.0565908849239403
7.28,6.555946469307,8.0019436776638,0-180,0,8.0019436776638,-0.0749550759792292
7.32,6.5342795848847,7.92698860168457,0-180,0,7.92698860168457,-0.104410201311111
7.36,6.5016478300095,7.82257840037346,0-180,0,7.82257840037346,-0.0958584249019596
7.4,6.4701640605927,7.7267199754715,0-180,0,7.7267199754715,-0.1101702451706
7.44,6.4374572038651,7.6165497303009,0-180,0,7.6165497303009,-0.12532100081443
7.48,6.3968485593796,7.49122872948647,0-180,0,7.49122872948647,-0.0918403267860501
7.52,6.3595443964005,7.39938840270042,0-180,0,7.39938840270042,-0.125577300786969
7.56,6.3109320402146,7.27381110191345,0-180,0,7.27381110191345,-0.13031363487243
7.6,6.2661445140839,7.14349746704102,0-180,0,7.14349746704102,-0.11294856667519
7.64,6.2197852134705,7.03054890036583,0-180,0,7.03054890036583,-0.12094676494598
7.68,6.1770308017731,6.90960213541985,0-180,0,6.90960213541985,-0.0803917646408099
7.72,6.1310684680939,6.82921037077904,0-180,0,6.82921037077904,-0.0743582844734201
7.76,6.091468334198,6.75485208630562,0-180,0,6.75485208630562,-0.0914543867111197
7.8,6.0508543252945,6.6633976995945,0-180,0,6.6633976995945,-0.0895202159881601
7.84,6.0081964731217,6.57387748360634,0-180,0,6.57387748360634,-0.0994324684143102
7.88,5.965935587883,6.47444501519203,0-180,0,6.47444501519203,-0.0794366002082798
7.92,5.9199249744416,6.39500841498375,0-180,0,6.39500841498375,-0.0751107931137103
7.96,5.8806359767914,6.31989762187004,0-180,0,6.31989762187004,-0.11309161782265
8,5.8291107416153,6.20680600404739,0-180,0,6.20680600404739,-0.0819545239210102
8.04,5.7860988378525,6.12485148012638,0-180,0,6.12485148012638,-0.09330101311207
8.08,5.7435482740403,6.03155046701431,0-180,0,6.03155046701431,-0.0958565622568104
8.12,5.6938469409943,5.9356939047575,0-180,0,5.9356939047575,-0.0838477164506894
8.16,5.6480348110199,5.85184618830681,0-180,0,5.85184618830681,-0.0969916582107606
8.2,5.6026947498322,5.75485453009605,0-180,0,5.75485453009605,-0.0696677714586196
8.24,5.5617427825928,5.68518675863743,0-180,0,5.68518675863743,-0.0951033085584703
8.28,5.5153244733811,5.59008345007896,0-180,0,5.59008345007896,-0.0893250107765198
8.32,5.4706710577011,5.50075843930244,0-180,0,5.50075843930244,-0.0852450728416398
8.36,5.4239630699158,5.4155133664608,0-180,0,5.4155133664608,-0.0738523900508898
8.4,5.3810584545136,5.34166097640991,0-180,0,5.34166097640991,-0.0779069960117305
8.44,5.3392535448075,5.26375398039818,0-180,0,5.26375398039818,-0.0890526920556995
8.48,5.2965688705445,5.17470128834248,0-180,0,5.17470128834248,-0.0640090554952701
8.52,5.2508908510208,5.11069223284721,0-180,0,5.11069223284721,-0.07376857101917
8.56,5.2121275663376,5.03692366182804,0-180,0,5.03692366182804,-0.0847347080707506
8.6,5.164459347725,4.95218895375729,0-180,0,4.95218895375729,-0.0786714255809793
8.64,5.1209270954132,4.87351752817631,0-180,0,4.87351752817631,-0.0673949718475404
8.68,5.0769549608231,4.80612255632877,0-180,0,4.80612255632877,-0.0575676560401899
8.72,5.0335943698883,4.74855490028858,0-180,0,4.74855490028858,-0.0842500478029198
8.76,4.9900245666504,4.66430485248566,0-180,0,4.66430485248566,-0.0611200928688103
8.8,4.955912232399,4.60318475961685,0-180,0,4.60318475961685,-0.0762470066547403
8.84,4.9060499668122,4.52693775296211,0-180,0,4.52693775296211,-0.0766847282648095
8.88,4.8604148626328,4.4502530246973,0-180,0,4.4502530246973,-0.0497527420520703
8.92,4.8249077796936,4.40050028264523,0-180,0,4.40050028264523,-0.0918243080377596
8.96,4.7785753011704,4.30867597460747,0-180,0,4.30867597460747,-0.0422932207584399
9,4.7397208213807,4.26638275384903,0-180,0,4.26638275384903,-0.0770844519138301
9.04,4.6977335214615,4.1892983019352,0-180,0,4.1892983019352,-0.0672753900289607
9.08,4.6503335237503,4.12202291190624,0-180,0,4.12202291190624,-0.0530600547790501
9.12,4.6136194467545,4.06896285712719,0-180,0,4.06896285712719,-0.0882841646671295
9.16,4.5706450939179,3.98067869246006,0-180,0,3.98067869246006,-0.0723697245121002
9.2,4.5236152410508,3.90830896794796,0-180,0,3.90830896794796,-0.06300024688244
9.24,4.4867509603501,3.84530872106552,0-180,0,3.84530872106552,-0.0636789947748198
9.28,4.4435995817185,3.7816297262907,0-180,0,3.7816297262907,-0.08127577602863
9.32,4.3992680311203,3.70035395026207,0-180,0,3.70035395026207,-0.0780351459980002
9.36,4.3542122840882,3.62231880426407,0-180,0,3.62231880426407,-0.03320276737213
9.4,4.3096500635147,3.58911603689194,0-180,0,3.58911603689194,-0.0591035932302497
9.44,4.2747652530671,3.53001244366169,0-180,0,3.53001244366169,-0.0643517822027202
9.48,4.2292267084122,3.46566066145897,0-180,0,3.46566066145897,-0.0515073537826498
9.52,4.1910696029663,3.41415330767632,0-180,0,3.41415330767632,-0.0561933964490904
9.56,4.1446512937546,3.35795991122723,0-180,0,3.35795991122723,-0.0512380152940799
9.6,4.1051530838013,3.30672189593315,0-180,0,3.30672189593315,-0.0738088041543898
9.64,4.0621733665467,3.23291309177876,0-180,0,3.23291309177876,-0.0418562442064299
9.68,4.02135014534,3.19105684757233,0-180,0,3.19105684757233,-0.0555511564016404
9.72,3.9797919988633,3.13550569117069,0-180,0,3.13550569117069,-0.0442948192357999
9.76,3.940846323967,3.09121087193489,0-180,0,3.09121087193489,-0.0590486451983399
9.8,3.8991862535477,3.03216222673655,0-180,0,3.03216222673655,-0.0645902007818302
9.84,3.8573598861695,2.96757202595472,0-180,0,2.96757202595472,-0.0612914562225297
9.88,3.8203293085099,2.90628056973219,0-180,0,2.90628056973219,-0.06212759763002
9.92,3.7780898809433,2.84415297210217,0-180,0,2.84415297210217,-0.0641079619526903
9.96,3.7354910373688,2.78004501014948,0-180,0,2.78004501014948,-0.0555891543626799
10,3.6977791786194,2.7244558557868,0-180,0,2.7244558557868,-0.0605667009949697
10.04,3.6532974243164,2.66388915479183,0-180,0,2.66388915479183,-0.0620927661657302
10.08,3.6150008440018,2.6017963886261,0-180,0,2.6017963886261,-0.0639177858829498
10.12,3.5689795017243,2.53787860274315,0-180,0,2.53787860274315,-0.0483887270093
10.16,3.5317879915238,2.48948987573385,0-180,0,2.48948987573385,-0.0558298081159601
10.2,3.4901171922684,2.43366006761789,0-180,0,2.43366006761789,-0.06714463233947
10.24,3.4494763612748,2.36651543527842,0-180,0,2.36651543527842,-0.0680407509207801
10.28,3.4080308675766,2.29847468435764,0-180,0,2.29847468435764,-0.0419676303863499
10.32,3.366858959198,2.25650705397129,0-180,0,2.25650705397129,-0.0562511384487103
10.36,3.3256763219834,2.20025591552258,0-180,0,2.20025591552258,-0.05405060946942
10.4,3.2851159572602,2.14620530605316,0-180,0,2.14620530605316,-0.0508967787027297
10.44,3.241508603096,2.09530852735043,0-180,0,2.09530852735043,-0.03984849900008
10.48,3.2064414024353,2.05546002835035,0-180,0,2.05546002835035,-0.07258169353008
10.52,3.165500164032,1.98287833482027,0-180,0,1.98287833482027,-0.04473105072975
10.56,3.1186312437058,1.93814728409052,0-180,0,1.93814728409052,-0.05417913198471
10.6,3.0829256772995,1.88396815210581,0-180,0,1.88396815210581,-0.0599056482315101
10.64,3.0432933568955,1.8240625038743,0-180,0,1.8240625038743,-0.0551307573914499
10.68,3.0001956224442,1.76893174648285,0-180,0,1.76893174648285,-0.06708167493343
10.72,2.9580420255661,1.70185007154942,0-180,0,1.70185007154942,-0.0495163723826499
10.76,2.9098266363144,1.65233369916677,0-180,0,1.65233369916677,-0.0559611245989802
10.8,2.862378358841,1.59637257456779,0-180,0,1.59637257456779,-0.0453844666480998
10.84,2.8202086687088,1.55098810791969,0-180,0,1.55098810791969,-0.0568741001188702
10.88,2.7828776836396,1.49411400780082,0-180,0,1.49411400780082,-0.0530873425304899
10.92,2.7401661872864,1.44102666527033,0-180,0,1.44102666527033,-0.05779163911939
10.96,2.6960921287537,1.38323502615094,0-180,0,1.38323502615094,-0.0621267594397001
11,2.649502158165,1.32110826671124,0-180,0,1.32110826671124,-0.0284831970930099
11.04,2.6103311777115,1.29262506961823,0-180,0,1.29262506961823,-0.0465034507215101
11.08,2.5660264492035,1.24612161889672,0-180,0,1.24612161889672,-0.02505229786038
11.12,2.5267267227173,1.22106932103634,0-180,0,1.22106932103634,-0.0577500090002998
11.16,2.4831408262253,1.16331931203604,0-180,0,1.16331931203604,-0.0535172410309301
11.2,2.4392277002335,1.10980207100511,0-180,0,1.10980207100511,-0.04799151793123
11.24,2.3935872316361,1.06181055307388,0-180,0,1.06181055307388,-0.0371247529983501
11.28,2.3499423265457,1.02468580007553,0-180,0,1.02468580007553,-0.02323035150766
11.32,2.3149555921555,1.00145544856787,0-180,0,1.00145544856787,-0.048874504864219
11.36,2.2714018821717,0.952580943703651,0-180,0,0.952580943703651,-0.040000583976507
11.4,2.2290873527527,0.912580359727144,0-180,0,0.912580359727144,-0.054850056767463
11.44,2.1829265356064,0.857730302959681,0-180,0,0.857730302959681,-0.05576815456152
11.48,2.1415722370148,0.801962148398161,0-180,0,0.801962148398161,-0.0289394520223141
11.52,2.0938128232956,0.773022696375847,0-180,0,0.773022696375847,-0.021055061370134
11.56,2.0567446947098,0.751967635005713,0-180,0,0.751967635005713,-0.038577802479268
11.6,2.0165008306504,0.713389832526445,0-180,0,0.713389832526445,-0.049824360758066
11.64,1.9764232635498,0.663565471768379,0-180,0,0.663565471768379,-0.063792150467634
11.68,1.9324564933777,0.599773321300745,0-180,0,0.599773321300745,-0.037018395960331
11.72,1.8920946121216,0.562754925340414,0-180,0,0.562754925340414,-0.0392545014619831
11.76,1.8508046865464,0.523500423878431,0-180,0,0.523500423878431,-0.024810433387756
11.8,1.8203938007355,0.498689990490675,0-180,0,0.498689990490675,-0.074305478483439
11.84,1.7780685424805,0.424384512007236,0-180,0,0.424384512007236,-0.049736071377992
11.88,1.7336404323578,0.374648440629244,0-180,0,0.374648440629244,-0.035347416996956
11.92,1.6919106245041,0.339301023632288,0-180,0,0.339301023632288,-0.033946800976992
11.96,1.6582435369492,0.305354222655296,0-180,0,0.305354222655296,-0.070015247911215
12,1.6077965497971,0.235338974744081,0-180,0,0.235338974744081,-0.052009895443916
12.04,1.5628534555436,0.183329079300165,0-180,0,0.183329079300165,-0.038540549576282
12.08,1.5200936794281,0.144788529723883,0-180,0,0.144788529723883,-0.0474892556667331
12.12,1.4750862121582,0.0972992740571499,0-180,0,0.0972992740571499,-0.0418282113969326
12.16,1.4444339275361,0.0554710626602173,0-180,0,0.0554710626602173,-0.038350559771061
12.2,1.4105361700058,0.0171205028891563,0-180,0,0.0171205028891563,0.0244701281189919
12.24,1.3642305135727,-0.0415906310081482,0-180,0,0.0415906310081482,0.044853612780571
12.28,1.3225543498993,-0.0864442437887192,0-180,0,0.0864442437887192,0.0274148769676688
12.32,1.2938225269318,-0.113859120756388,0-180,0,0.113859120756388,0.021758116781711
12.36,1.2632668018341,-0.135617237538099,0-180,0,0.135617237538099,0.026019476354122
12.4,1.2325018644333,-0.161636713892221,0-180,0,0.161636713892221,0.029712729156018
12.44,1.2047678232193,-0.191349443048239,0-180,0,0.191349443048239,0.034826807677746
12.48,1.1725652217865,-0.226176250725985,0-180,0,0.226176250725985,0.041394680738449
12.52,1.1397457122803,-0.267570931464434,0-180,0,0.267570931464434,0.022909324616193
12.56,1.1034768819809,-0.290480256080627,0-180,0,0.290480256080627,0.052732694894076
12.6,1.0722720623017,-0.343212950974703,0-180,0,0.343212950974703,0.059124827384949
12.64,1.0345977544785,-0.402337778359652,0-180,0,0.402337778359652,0.047382246702909
12.68,0.998661518097002,-0.449720025062561,0-180,0,0.449720025062561,0.058938004076481
12.72,0.963100790977503,-0.508658029139042,0-180,0,0.508658029139042,0.05443599075079
12.76,0.922229290008602,-0.563094019889832,0-180,0,0.563094019889832,0.065519567579031
12.8,0.883900523185801,-0.628613587468863,0-180,0,0.628613587468863,0.059673190116882
12.84,0.841634273529102,-0.688286777585745,0-180,0,0.688286777585745,0.0647093169391151
12.88,0.802275538444601,-0.75299609452486,0-180,0,0.75299609452486,0.062982551753521
12.92,0.758791565895102,-0.815978646278381,0-180,0,0.815978646278381,0.040693115442992
12.96,0.720629096031203,-0.856671761721373,0-180,0,0.856671761721373,0.0677210278809069
13,0.679773688316402,-0.92439278960228,0-180,0,0.92439278960228,0.063707027584314
13.04,0.636413097381602,-0.988099817186594,0-180,0,0.988099817186594,0.0549533404409861
13.08,0.6018501520157,-1.04305315762758,0-180,0,1.04305315762758,0.0845253467559799
13.12,0.550539493560802,-1.12757850438356,0-180,0,1.12757850438356,0.0122426077723501
13.16,0.514152646064801,-1.13982111215591,0-180,0,1.13982111215591,0.05515180528164
13.2,0.474209189415003,-1.19497291743755,0-180,0,1.19497291743755,0.0584912486374398
13.24,0.429909825325002,-1.25346416607499,0-180,0,1.25346416607499,0.04608435556293
13.28,0.391184091568,-1.29954852163792,0-180,0,1.29954852163792,0.0449544750154001
13.32,0.353343486785903,-1.34450299665332,0-180,0,1.34450299665332,0.06278958171606
13.36,0.310830473899902,-1.40729257836938,0-180,0,1.40729257836938,0.0348131172359001
13.4,0.272630453109802,-1.44210569560528,0-180,0,1.44210569560528,0.0640940852463199
13.44,0.237477421760602,-1.5061997808516,0-180,0,1.5061997808516,0.0524871051311502
13.48,0.1956081390381,-1.55868688598275,0-180,0,1.55868688598275,0.0599690712988399
13.52,0.156624913215701,-1.61865595728159,0-180,0,1.61865595728159,0.0351453199982601
13.56,0.119374394416802,-1.65380127727985,0-180,0,1.65380127727985,0.03733634948731
