Time,Rotation,Torque,Folder,Theta,TestTorque,DR
0,0,0.0241984613239765,0-180,0,0.0241984613239765,-0.004188809543848
0.04,0,0.0200096517801285,0-180,0,0.0200096517801285,0.0090905465185642
0.12,0.00202238559730006,0.0291001982986927,0-180,0,0.0291001982986927,0.120074488222599
0.24,0.0435912609101017,0.149174686521292,0-180,0,0.149174686521292,0.1594721339643
0.32,0.0842213630677016,0.308646820485592,0-180,0,0.308646820485592,0.146650522947311
0.36,0.124508142471303,0.455297343432903,0-180,0,0.455297343432903,0.201246980577708
0.44,0.210537314415003,0.656544324010611,0-180,0,0.656544324010611,0.160558987408876
0.52,0.284877419471801,0.817103311419487,0-180,0,0.817103311419487,0.0992858782410621
0.56,0.325834751129204,0.916389189660549,0-180,0,0.916389189660549,0.0528983771800999
0.6,0.362318158149701,0.969287566840649,0-180,0,0.969287566840649,0.104849506169561
0.68,0.440150499343904,1.07413707301021,0-180,0,1.07413707301021,0.10633077472448
0.76,0.506165027618401,1.18046784773469,0-180,0,1.18046784773469,0.13486621901393
0.84,0.582892298698503,1.31533406674862,0-180,0,1.31533406674862,0.13353424146771
0.92,0.658460855484002,1.44886830821633,0-180,0,1.44886830821633,0.1305009238422
1,0.738696455955502,1.57936923205853,0-180,0,1.57936923205853,0.19889120012521
1.12,0.882897377014203,1.77826043218374,0-180,0,1.77826043218374,0.18402673304081
1.24,0.990196466445902,1.96228716522455,0-180,0,1.96228716522455,0.12984834611416
1.32,1.0691982507706,2.09213551133871,0-180,0,2.09213551133871,0.14465879648924
1.4,1.1584085226059,2.23679430782795,0-180,0,2.23679430782795,0.18097069114447
1.48,1.2478548288346,2.41776499897242,0-180,0,2.41776499897242,0.0557858496904302
1.52,1.2904858589173,2.47355084866285,0-180,0,2.47355084866285,0.0580079853534698
1.56,1.3247537612915,2.53155883401632,0-180,0,2.53155883401632,0.15422012656927
1.64,1.4105361700058,2.68577896058559,0-180,0,2.68577896058559,0.12923981994391
1.72,1.4981532096863,2.8150187805295,0-180,0,2.8150187805295,0.18437281250954
1.8,1.5880018472672,2.99939159303904,0-180,0,2.99939159303904,0.10719783604145
1.88,1.6715151071549,3.10658942908049,0-180,0,3.10658942908049,0.10972153395414
1.96,1.757994890213,3.21631096303463,0-180,0,3.21631096303463,0.12153200805187
2.08,1.8763285875321,3.3378429710865,0-180,0,3.3378429710865,0.1543790102005
2.2,1.9897645711899,3.492221981287,0-180,0,3.492221981287,0.13086833059788
2.28,2.0704025030136,3.62309031188488,0-180,0,3.62309031188488,0.15855990350246
2.36,2.1575796604157,3.78165021538734,0-180,0,3.78165021538734,0.13629049062729
2.44,2.2457867860794,3.91794070601463,0-180,0,3.91794070601463,0.159402564167979
2.52,2.3369765281677,4.07734327018261,0-180,0,4.07734327018261,0.1786794513464
2.64,2.4615275859833,4.25602272152901,0-180,0,4.25602272152901,0.117801502346991
2.72,2.5417631864548,4.373824223876,0-180,0,4.373824223876,0.116422027349469
2.8,2.6301795244217,4.49024625122547,0-180,0,4.49024625122547,0.131922215223311
2.88,2.7078992128372,4.62216846644878,0-180,0,4.62216846644878,0.15100501477719
3,2.8312003612519,4.77317348122597,0-180,0,4.77317348122597,0.12426115572452
3.08,2.9065489768982,4.89743463695049,0-180,0,4.89743463695049,0.1186415553093
3.16,2.9896974563599,5.01607619225979,0-180,0,5.01607619225979,0.11068135499954
3.24,3.0689245462418,5.12675754725933,0-180,0,5.12675754725933,0.101618468761441
3.32,3.1475239992142,5.22837601602077,0-180,0,5.22837601602077,0.12732855975628
3.4,3.2305866479874,5.35570457577705,0-180,0,5.35570457577705,0.14958046376706
3.52,3.3453261852265,5.50528503954411,0-180,0,5.50528503954411,0.11696927249431
3.6,3.4234964847565,5.62225431203842,0-180,0,5.62225431203842,0.124581530690191
3.68,3.4984374046326,5.74683584272861,0-180,0,5.74683584272861,0.12645833194256
3.76,3.5812103748322,5.87329417467117,0-180,0,5.87329417467117,0.10066479444504
3.84,3.6551374197006,5.97395896911621,0-180,0,5.97395896911621,0.11332333087921
3.92,3.7321597337723,6.08728229999542,0-180,0,6.08728229999542,0.12454390525818
4,3.8109523057938,6.2118262052536,0-180,0,6.2118262052536,0.127360224723819
4.12,3.920681476593,6.33918642997742,0-180,0,6.33918642997742,0.11565610766411
4.2,4.0076923370362,6.45484253764153,0-180,0,6.45484253764153,0.1578614115715
4.32,4.1253662109375,6.61270394921303,0-180,0,6.61270394921303,0.16322657465935
4.44,4.2416989803314,6.77593052387238,0-180,0,6.77593052387238,0.14740824699401
4.56,4.3545073270798,6.92333877086639,0-180,0,6.92333877086639,0.1402460038662
4.68,4.4653415679932,7.06358477473259,0-180,0,7.06358477473259,0.0844396650791204
4.76,4.5414680242539,7.14802443981171,0-180,0,7.14802443981171,0.0886142253875697
4.8,4.5846784114838,7.23663866519928,0-180,0,7.23663866519928,0.123447179794311
4.92,4.7131991386414,7.36008584499359,0-180,0,7.36008584499359,0.1362569630146
5.04,4.8270106315613,7.49634280800819,0-180,0,7.49634280800819,0.107614696025849
5.16,4.9414765834809,7.60395750403404,0-180,0,7.60395750403404,0.102203339338311
5.24,5.0171363353729,7.70616084337235,0-180,0,7.70616084337235,0.142753869295119
5.36,5.1242959499359,7.84891471266747,0-180,0,7.84891471266747,0.15577748417854
5.48,5.2398133277893,8.00469219684601,0-180,0,8.00469219684601,0.177329778671259
5.6,5.3555184602738,8.18202197551727,0-180,0,8.18202197551727,0.121144950389871
5.72,5.4732406139374,8.30316692590714,0-180,0,8.30316692590714,0.107378512620919
5.8,5.5436056852341,8.41054543852806,0-180,0,8.41054543852806,0.116704404354101
5.88,5.6256705522537,8.52724984288216,0-180,0,8.52724984288216,0.11727139353752
5.96,5.6964433193207,8.64452123641968,0-180,0,8.64452123641968,0.13357847929001
6.08,5.81229865551,8.77809971570969,0-180,0,8.77809971570969,0.121639668941491
6.16,5.8954149484635,8.89973938465118,0-180,0,8.89973938465118,0.165275484323509
6.28,6.0109215974808,9.06501486897469,0-180,0,9.06501486897469,0.177754461765291
6.4,6.1322861909867,9.24276933073998,0-180,0,9.24276933073998,0.0533781945705396
6.52,6.2232398986817,9.29614752531052,0-180,0,9.29614752531052,-0.0333182513713908
6.56,6.2441396713257,9.26282927393913,0-180,0,9.26282927393913,-0.0817522406577993
6.72,6.2677431106568,9.18107703328133,0-180,0,9.18107703328133,0
6.72,6.2677431106568,9.18107703328133,0-180,0,9.18107703328133,-0.0228963792324102
6.76,6.2872695922852,9.15818065404892,0-180,0,9.15818065404892,-0.0734284520149195
6.8,6.2883585691452,9.084752202034,0-180,0,9.084752202034,-0.0447660684585607
6.84,6.2816101312638,9.03998613357544,0-180,0,9.03998613357544,-0.0356271862983686
6.88,6.2715035676956,9.00435894727707,0-180,0,9.00435894727707,-0.07840543985367
6.92,6.2617939710617,8.9259535074234,0-180,0,8.9259535074234,-0.0803537666797602
6.96,6.2596589326859,8.84559974074364,0-180,0,8.84559974074364,-0.0445842742920011
7,6.2401646375656,8.80101546645164,0-180,0,8.80101546645164,-0.13350397348403
7.04,6.2200856208802,8.66751149296761,0-180,0,8.66751149296761,-0.0579752027988487
7.08,6.1991053819657,8.60953629016876,0-180,0,8.60953629016876,-0.0980943441391009
7.12,6.1775726079941,8.51144194602966,0-180,0,8.51144194602966,-0.0928685069084096
7.16,6.151083111763,8.41857343912125,0-180,0,8.41857343912125,-0.104425102472311
7.2,6.1250925064087,8.31414833664894,0-180,0,8.31414833664894,-0.127736479043959
7.24,6.0877990722657,8.18641185760498,0-180,0,8.18641185760498,-0.139356404542921
7.28,6.0526943206787,8.04705545306206,0-180,0,8.04705545306206,-0.114562362432479
7.32,6.015272140503,7.93249309062958,0-180,0,7.93249309062958,-0.0904418528080004
7.36,5.9767019748688,7.84205123782158,0-180,0,7.84205123782158,-0.13990700244904
7.4,5.932434797287,7.70214423537254,0-180,0,7.70214423537254,-0.1256376504898
7.44,5.8884036540985,7.57650658488274,0-180,0,7.57650658488274,-0.12226477265358
7.48,5.8473497629166,7.45424181222916,0-180,0,7.45424181222916,-0.12176781892777
7.52,5.8060276508332,7.33247399330139,0-180,0,7.33247399330139,-0.10600909590721
7.56,5.7608646154404,7.22646489739418,0-180,0,7.22646489739418,-0.0961132347583806
7.6,5.7170587778092,7.1303516626358,0-180,0,7.1303516626358,-0.11487454175949
7.64,5.6711661815644,7.01547712087631,0-180,0,7.01547712087631,-0.0848621129989597
7.68,5.6418067216873,6.93061500787735,0-180,0,6.93061500787735,-0.11768192052841
7.72,5.5903458595276,6.81293308734894,0-180,0,6.81293308734894,-0.0896327197551701
7.76,5.5502843856812,6.72330036759377,0-180,0,6.72330036759377,-0.0809781253337896
7.8,5.5119985342026,6.64232224225998,0-180,0,6.64232224225998,-0.141420960426331
7.84,5.4675006866455,6.50090128183365,0-180,0,6.50090128183365,-0.0978343188762691
7.88,5.4213237762451,6.40306696295738,0-180,0,6.40306696295738,-0.0827796757221204
7.92,5.381863117218,6.32028728723526,0-180,0,6.32028728723526,-0.0991679728031203
7.96,5.335214138031,6.22111931443214,0-180,0,6.22111931443214,-0.0932671129703495
8,5.293784737587,6.12785220146179,0-180,0,6.12785220146179,-0.11225827038288
8.04,5.2488952875138,6.01559393107891,0-180,0,6.01559393107891,-0.0774435698986
8.08,5.2085548639298,5.93815036118031,0-180,0,5.93815036118031,-0.10945349931717
8.12,5.1663798093796,5.82869686186314,0-180,0,5.82869686186314,-0.0787563621997895
8.16,5.1234483718872,5.74994049966335,0-180,0,5.74994049966335,-0.100114196538921
8.2,5.0791329145432,5.64982630312443,0-180,0,5.64982630312443,-0.0613406300544792
8.24,5.0457286834717,5.58848567306995,0-180,0,5.58848567306995,-0.11214427649974
8.28,4.9974703788758,5.47634139657021,0-180,0,5.47634139657021,-0.0857360661029904
8.32,4.9514544010163,5.39060533046722,0-180,0,5.39060533046722,-0.0728610903024594
8.36,4.9109315872193,5.31774424016476,0-180,0,5.31774424016476,-0.0929255038499903
8.4,4.8652911186219,5.22481873631477,0-180,0,5.22481873631477,-0.0692993402480999
8.44,4.8197364807129,5.15551939606667,0-180,0,5.15551939606667,-0.0779576599598002
8.48,4.7793102264405,5.07756173610687,0-180,0,5.07756173610687,-0.10133758187294
8.52,4.7279834747315,4.97622415423393,0-180,0,4.97622415423393,-0.0594809651374799
8.56,4.688463807106,4.91674318909645,0-180,0,4.91674318909645,-0.0757336616516096
8.6,4.643783569336,4.84100952744484,0-180,0,4.84100952744484,-0.0823352485895201
8.64,4.5987224578858,4.75867427885532,0-180,0,4.75867427885532,-0.0784046947956005
8.68,4.5589399337769,4.68026958405972,0-180,0,4.68026958405972,-0.0690180808305794
8.72,4.5173871517182,4.61125150322914,0-180,0,4.61125150322914,-0.0610545277595502
8.76,4.4811451435089,4.55019697546959,0-180,0,4.55019697546959,-0.0907782465219498
8.8,4.4400697946549,4.45941872894764,0-180,0,4.45941872894764,-0.0630501657724407
8.84,4.4038009643555,4.3963685631752,0-180,0,4.3963685631752,-0.07943622767925
8.88,4.3612504005432,4.31693233549595,0-180,0,4.31693233549595,-0.0829491764306995
8.92,4.3236565589905,4.23398315906525,0-180,0,4.23398315906525,-0.0619646161794698
8.96,4.2848557233811,4.17201854288578,0-180,0,4.17201854288578,-0.0920869410038003
9,4.2417311668396,4.07993160188198,0-180,0,4.07993160188198,-0.0777669250965101
9.04,4.2014712095261,4.00216467678547,0-180,0,4.00216467678547,-0.07830522954464
9.08,4.161474108696,3.92385944724083,0-180,0,3.92385944724083,-0.06377957761288
9.12,4.1237461566925,3.86007986962795,0-180,0,3.86007986962795,-0.0737570226192399
9.16,4.0813511610031,3.78632284700871,0-180,0,3.78632284700871,-0.0855255872011202
9.2,4.0399593114853,3.70079725980759,0-180,0,3.70079725980759,-0.0623632222413999
9.24,4.0008902549744,3.63843403756619,0-180,0,3.63843403756619,-0.0869367271661798
9.28,3.9558506011963,3.55149731040001,0-180,0,3.55149731040001,-0.0579945743083998
9.32,3.9151722192765,3.49350273609161,0-180,0,3.49350273609161,-0.0729091465473104
9.36,3.8765913248062,3.4205935895443,0-180,0,3.4205935895443,-0.0646874308586196
9.4,3.8368248939514,3.35590615868568,0-180,0,3.35590615868568,-0.0593818724155404
9.44,3.7978845834732,3.29652428627014,0-180,0,3.29652428627014,-0.0809732824563998
9.48,3.7578231096268,3.21555100381374,0-180,0,3.21555100381374,-0.11778473854065
9.52,3.7114369869232,3.09776626527309,0-180,0,3.09776626527309,-0.0711744651198303
9.56,3.67014169693,3.02659180015326,0-180,0,3.02659180015326,-0.0517223030328799
9.6,3.6354178190232,2.97486949712038,0-180,0,2.97486949712038,-0.08771177381277
9.64,3.5890156030655,2.88715772330761,0-180,0,2.88715772330761,-0.0824766233563401
9.68,3.5447323322296,2.80468109995127,0-180,0,2.80468109995127,-0.0729041174054199
9.72,3.5037964582443,2.73177698254585,0-180,0,2.73177698254585,-0.07893089205026
9.76,3.4641426801682,2.65284609049559,0-180,0,2.65284609049559,-0.07044561207295
9.8,3.4223109483719,2.58240047842264,0-180,0,2.58240047842264,-0.07408689707517
9.84,3.3794760704041,2.50831358134747,0-180,0,2.50831358134747,-0.0737061724066801
9.88,3.3337819576264,2.43460740894079,0-180,0,2.43460740894079,-0.0667423009872397
9.92,3.2903677225113,2.36786510795355,0-180,0,2.36786510795355,-0.0560272485017803
9.96,3.2473504543305,2.31183785945177,0-180,0,2.31183785945177,-0.0539777800440797
10,3.2091718912125,2.25786007940769,0-180,0,2.25786007940769,-0.0947603955864902
10.04,3.1624853610993,2.1630996838212,0-180,0,2.1630996838212,-0.06380490958691
10.08,3.1185507774353,2.09929477423429,0-180,0,2.09929477423429,-0.0546019524335799
10.12,3.0784142017365,2.04469282180071,0-180,0,2.04469282180071,-0.06276797503233
10.16,3.0363142490387,1.98192484676838,0-180,0,1.98192484676838,-0.0506363809108701
10.2,2.9965478181839,1.93128846585751,0-180,0,1.93128846585751,-0.07384847849608
10.24,2.9529082775116,1.85743998736143,0-180,0,1.85743998736143,-0.0457713380456
10.28,2.9095208644867,1.81166864931583,0-180,0,1.81166864931583,-0.0690231099724701
10.32,2.8657740354538,1.74264553934336,0-180,0,1.74264553934336,-0.06364639848471
10.36,2.8303366899491,1.67899914085865,0-180,0,1.67899914085865,-0.05870219320059
10.4,2.7802866697312,1.62029694765806,0-180,0,1.62029694765806,-0.04528760910034
10.44,2.7394527196884,1.57500933855772,0-180,0,1.57500933855772,-0.0434499233961099
10.48,2.696875333786,1.53155941516161,0-180,0,1.53155941516161,-0.0861098058521801
10.52,2.6525169610977,1.44544960930943,0-180,0,1.44544960930943,-0.06393631920218
10.56,2.6091456413269,1.38151329010725,0-180,0,1.38151329010725,-0.04959078505635
10.6,2.5674158334732,1.3319225050509,0-180,0,1.3319225050509,-0.03066863864661
10.64,2.5285077095032,1.30125386640429,0-180,0,1.30125386640429,-0.0684154219925401
10.68,2.4874913692475,1.23283844441175,0-180,0,1.23283844441175,-0.06742794066667
10.72,2.4445813894272,1.16541050374508,0-180,0,1.16541050374508,-0.06460761651397
10.76,2.399337887764,1.10080288723111,0-180,0,1.10080288723111,-0.02424297854304
10.8,2.3560041189194,1.07655990868807,0-180,0,1.07655990868807,-0.0472631305456199
10.84,2.3177129030228,1.02929677814245,0-180,0,1.02929677814245,-0.069279782474039
10.88,2.2718793153763,0.960016995668411,0-180,0,0.960016995668411,-0.0437571667134761
10.92,2.224103808403,0.916259828954935,0-180,0,0.916259828954935,-0.040674861520529
10.96,2.1796220541001,0.875584967434406,0-180,0,0.875584967434406,-0.052791461348533
11,2.1460193395615,0.822793506085873,0-180,0,0.822793506085873,-0.038429722189904
11.04,2.1037369966507,0.784363783895969,0-180,0,0.784363783895969,-0.0438355840742579
11.08,2.0600813627243,0.740528199821711,0-180,0,0.740528199821711,-0.033813156187535
11.12,2.0237052440644,0.706715043634176,0-180,0,0.706715043634176,-0.039184093475342
11.16,1.9819110631943,0.667530950158834,0-180,0,0.667530950158834,-0.047922600060701
11.2,1.9467848539353,0.619608350098133,0-180,0,0.619608350098133,-0.036151986569166
11.24,1.911980509758,0.583456363528967,0-180,0,0.583456363528967,-0.044227112084627
11.28,1.8721926212311,0.53922925144434,0-180,0,0.53922925144434,-0.011981278657913
11.32,1.8417227268219,0.527247972786427,0-180,0,0.527247972786427,-0.044556614011527
11.36,1.7991721630097,0.4826913587749,0-180,0,0.4826913587749,-0.00585447996854699
11.4,1.7664813995362,0.476836878806353,0-180,0,0.476836878806353,-0.056640710681677
11.44,1.7337691783905,0.420196168124676,0-180,0,0.420196168124676,-0.037423707544804
11.48,1.6938579082489,0.382772460579872,0-180,0,0.382772460579872,-0.060657225549221
11.52,1.654434800148,0.322115235030651,0-180,0,0.322115235030651,-0.035118870437145
11.56,1.6207784414292,0.286996364593506,0-180,0,0.286996364593506,-0.045078527182341
11.6,1.5841233730316,0.241917837411165,0-180,0,0.241917837411165,-0.03310302272439
11.64,1.5492278337479,0.208814814686775,0-180,0,0.208814814686775,-0.060057453811168
11.68,1.5112638473511,0.148757360875607,0-180,0,0.148757360875607,-0.0515779480338101
11.72,1.4731818437577,0.0971794128417969,0-180,0,0.0971794128417969,-0.0561561435461045
11.76,1.431999206543,0.0410232692956924,0-180,0,0.0410232692956924,-0.0401821918785572
11.8,1.4030581712723,0.000841077417135239,0-180,0,0.000841077417135239,0.0296794809401036
11.84,1.3701689243317,-0.0305205583572388,0-180,0,0.0305205583572388,0.0967524945735932
11.88,1.3275861740113,-0.127273052930832,0-180,0,0.127273052930832,0.047751981765032
11.92,1.2948685884476,-0.175025034695864,0-180,0,0.175025034695864,0.05672862753272
11.96,1.2537825107575,-0.231753662228584,0-180,0,0.231753662228584,0.062659662216902
12,1.2131577730179,-0.294413324445486,0-180,0,0.294413324445486,0.057047232985497
12.04,1.1700707674027,-0.351460557430983,0-180,0,0.351460557430983,0.039250683039426
12.08,1.1300414800644,-0.390711240470409,0-180,0,0.390711240470409,0.056309718638659
12.12,1.0938853025437,-0.447020959109068,0-180,0,0.447020959109068,0.046439561992884
12.16,1.0563772916794,-0.493460521101952,0-180,0,0.493460521101952,0.075520016252994
12.2,1.0168039798737,-0.568980537354946,0-180,0,0.568980537354946,0.0193950720131399
12.24,0.987562537193302,-0.588375609368086,0-180,0,0.588375609368086,0.0883507542312141
12.28,0.945703983306903,-0.6767263635993,0-180,0,0.6767263635993,0.055819563567639
12.32,0.904687643051204,-0.732545927166939,0-180,0,0.732545927166939,0.023610517382622
12.36,0.876342058181802,-0.756156444549561,0-180,0,0.756156444549561,0.0996380113065241
12.4,0.831913948059103,-0.855794455856085,0-180,0,0.855794455856085,0.04108427092433
12.44,0.794550776481604,-0.896878726780415,0-180,0,0.896878726780415,0.045648217201232
12.48,0.759762525558504,-0.942526943981647,0-180,0,0.942526943981647,0.0667225569486629
12.52,0.724491477012702,-1.00924950093031,0-180,0,1.00924950093031,0.0618817284703201
12.56,0.685749650001604,-1.07113122940063,0-180,0,1.07113122940063,0.06477776914835
12.6,0.653198361396804,-1.13590899854898,0-180,0,1.13590899854898,0.06962707266212
12.64,0.614472627639802,-1.2055360712111,0-180,0,1.2055360712111,0.0400545075535799
12.68,0.580419301986701,-1.24559057876468,0-180,0,1.24559057876468,0.06123809143901
12.72,0.542036890983603,-1.30682867020369,0-180,0,1.30682867020369,0.0468730926513601
12.76,0.506722927093502,-1.35370176285505,0-180,0,1.35370176285505,0.0461388379335399
12.8,0.473822951316905,-1.39984060078859,0-180,0,1.39984060078859,0.0734320841729701
12.84,0.430827140808102,-1.47327268496156,0-180,0,1.47327268496156,0.0183823518455
12.88,0.396687984466602,-1.49165503680706,0-180,0,1.49165503680706,0.0567991286516201
12.92,0.363879203796404,-1.54845416545868,0-180,0,1.54845416545868,0.03907028585672
12.96,0.327637195587204,-1.5875244513154,0-180,0,1.5875244513154,0.07379278540612
13,0.287253856659003,-1.66131723672152,0-180,0,1.66131723672152,0.0623693689703899
13.04,0.247905850410504,-1.72368660569191,0-180,0,1.72368660569191,0.0411545857787099
13.08,0.212607979774504,-1.76484119147062,0-180,0,1.76484119147062,0.0831523910164902
13.12,0.163641571998603,-1.84799358248711,0-180,0,1.84799358248711,0.0510718673467598
13.16,0.118467807769804,-1.89906544983387,0-180,0,1.89906544983387,0.0149870291352301
13.2,0.0950843095780023,-1.9140524789691,0-180,0,1.9140524789691,0.00404641032219
13.24,0.0675809383393045,-1.91809888929129,0-180,0,1.91809888929129,-0.00965427607298008
13.28,0.0522547960282012,-1.90844461321831,0-180,0,1.90844461321831,-0.0144379213452399
13.32,0.0414937734604024,-1.89400669187307,0-180,0,1.89400669187307,0.000492669641980026
