Time,Rotation,Torque,Folder,Theta,TestTorque,DR
0,0,0.00248802825808525,0-180,0,0.00248802825808525,0.0716187991201877
0.32,0.122791528701804,0.074106827378273,0-180,0,0.074106827378273,0.074837263673544
0.44,0.251001119613598,0.148944091051817,0-180,0,0.148944091051817,0.063838250935078
0.6,0.378803014755199,0.212782341986895,0-180,0,0.212782341986895,0.07644472643733
0.76,0.525262355804401,0.289227068424225,0-180,0,0.289227068424225,0.019771605730057
0.88,0.668374300003002,0.308998674154282,0-180,0,0.308998674154282,0.09402735158801
0.96,0.776333212852499,0.403026025742292,0-180,0,0.403026025742292,0.037055462598801
1.08,0.9016674757004,0.440081488341093,0-180,0,0.440081488341093,0.048122182488442
1.2,1.0385620594024,0.488203670829535,0-180,0,0.488203670829535,0.065867137163877
1.32,1.1714708805084,0.554070807993412,0-180,0,0.554070807993412,0.038950424641371
1.44,1.284692287445,0.593021232634783,0-180,0,0.593021232634783,0.0476038083434099
1.56,1.4217746257782,0.640625040978193,0-180,0,0.640625040978193,0.035810470581055
1.68,1.5311175584793,0.676435511559248,0-180,0,0.676435511559248,0.0421290285885331
1.8,1.6535979509353,0.718564540147781,0-180,0,0.718564540147781,0.046650599688292
1.92,1.7686593532562,0.765215139836073,0-180,0,0.765215139836073,0.040268246084452
2.04,1.8833076953888,0.805483385920525,0-180,0,0.805483385920525,0.0414487905800339
2.16,2.0004880428314,0.846932176500559,0-180,0,0.846932176500559,0.04176739603281
2.28,2.1180063486099,0.888699572533369,0-180,0,0.888699572533369,0.048359297215939
2.4,2.2431474924087,0.937058869749308,0-180,0,0.937058869749308,0.0503760762512681
2.52,2.3632353544235,0.987434946000576,0-180,0,0.987434946000576,0.0472056679427639
2.64,2.487062215805,1.03464061394334,0-180,0,1.03464061394334,0.04972349852323
2.76,2.6227337121963,1.08436411246657,0-180,0,1.08436411246657,0.04110718145967
2.88,2.7444738149643,1.12547129392624,0-180,0,1.12547129392624,0.0497923232615001
3,2.8753495216369,1.17526361718774,0-180,0,1.17526361718774,0.0488201156258601
3.12,3.0052757263183,1.2240837328136,0-180,0,1.2240837328136,0.0482624396681799
3.24,3.1253904104233,1.27234617248178,0-180,0,1.27234617248178,0.0543530099093901
3.36,3.254479765892,1.32669918239117,0-180,0,1.32669918239117,0.04849638789892
3.48,3.3848404884338,1.37519557029009,0-180,0,1.37519557029009,0.05302205681801
3.6,3.5266542434692,1.4282176271081,0-180,0,1.4282176271081,0.04051383584737
3.72,3.6502289772033,1.46873146295547,0-180,0,1.46873146295547,0.05454327911139
3.84,3.776239156723,1.52327474206686,0-180,0,1.52327474206686,0.0614024698734301
3.96,3.9158749580383,1.58467721194029,0-180,0,1.58467721194029,0.0198129564523699
4,3.9589458703995,1.60449016839266,0-180,0,1.60449016839266,0.0325657427310899
4.08,4.0448248386383,1.63705591112375,0-180,0,1.63705591112375,0.0200403854250901
4.2,4.1539692878723,1.65709629654884,0-180,0,1.65709629654884,0.0444373115897199
4.32,4.2634624242782,1.70153360813856,0-180,0,1.70153360813856,0.04008207470179
4.44,4.3814152479172,1.74161568284035,0-180,0,1.74161568284035,0.0735813751816701
4.56,4.5283681154251,1.81519705802202,0-180,0,1.81519705802202,0.05383267998696
4.68,4.6617168188095,1.86902973800898,0-180,0,1.86902973800898,0.0526271760463701
4.8,4.7973614931106,1.92165691405535,0-180,0,1.92165691405535,0.0445934012532199
4.92,4.9098265171051,1.96625031530857,0-180,0,1.96625031530857,0.0508172437548602
5.04,5.0385135412216,2.01706755906343,0-180,0,2.01706755906343,0.0433266162872399
5.16,5.1546585559845,2.06039417535067,0-180,0,2.06039417535067,0.05503315478563
5.28,5.2675366401672,2.1154273301363,0-180,0,2.1154273301363,0.0495132058858898
5.4,5.3892123699188,2.16494053602219,0-180,0,2.16494053602219,0.0498838722705801
5.52,5.5060333013534,2.21482440829277,0-180,0,2.21482440829277,0.04848800599575
5.64,5.6269365549087,2.26331241428852,0-180,0,2.26331241428852,0.0459656119346601
5.76,5.7432585954666,2.30927802622318,0-180,0,2.30927802622318,0.0584559515118599
5.88,5.8507883548736,2.36773397773504,0-180,0,2.36773397773504,0.0709889456629802
6,5.9868031740188,2.43872292339802,0-180,0,2.43872292339802,0.0436320900917
6.12,6.0878258943558,2.48235501348972,0-180,0,2.48235501348972,0.0616651028394699
6.24,6.215917468071,2.54402011632919,0-180,0,2.54402011632919,0.03327280282975
6.32,6.2879079580307,2.57729291915894,0-180,0,2.57729291915894,0.00705439597368018
6.36,6.3258987665176,2.58434731513262,0-180,0,2.58434731513262,0.0600982457399297
6.48,6.4418721199035,2.64444556087255,0-180,0,2.64444556087255,0.0467807054519702
6.6,6.5483236312866,2.69122626632452,0-180,0,2.69122626632452,0.0592455267906198
6.72,6.6650480031967,2.75047179311514,0-180,0,2.75047179311514,0.0518016517162301
6.84,6.7712634801864,2.80227344483137,0-180,0,2.80227344483137,0.0597208738327
6.96,6.8931698799133,2.86199431866407,0-180,0,2.86199431866407,0.0704338774085103
7.08,7.0270764827728,2.93242819607258,0-180,0,2.93242819607258,0.0413265079259899
7.2,7.1398258209228,2.97375470399857,0-180,0,2.97375470399857,0.06064046174287
7.32,7.2644037008285,3.03439516574144,0-180,0,3.03439516574144,0.0573910772800499
7.44,7.3737627267837,3.09178624302149,0-180,0,3.09178624302149,0.0564591959118799
7.56,7.4842053651809,3.14824543893337,0-180,0,3.14824543893337,0.0532034784555502
7.68,7.5937896966934,3.20144891738892,0-180,0,3.20144891738892,0.0771284103393501
7.8,7.7128314971924,3.27857732772827,0-180,0,3.27857732772827,0.0496596097946198
7.92,7.8238266706466,3.32823693752289,0-180,0,3.32823693752289,0.0703521072864501
8.04,7.9404598474502,3.39858904480934,0-180,0,3.39858904480934,0.0646214932203297
8.16,8.0494862794876,3.46321053802967,0-180,0,3.46321053802967,0.0712063163518901
8.28,8.1840097904205,3.53441685438156,0-180,0,3.53441685438156,0.0884085893630999
8.4,8.3115005493164,3.62282544374466,0-180,0,3.62282544374466,0.0591024756431602
8.52,8.4300595521927,3.68192791938782,0-180,0,3.68192791938782,0.0669781118631301
8.64,8.549348115921,3.74890603125095,0-180,0,3.74890603125095,0.0683128833770801
8.76,8.6580848693847,3.81721891462803,0-180,0,3.81721891462803,0.0823184847831699
8.88,8.7810158729553,3.8995373994112,0-180,0,3.8995373994112,0.0696562230586997
9,8.8988345861435,3.9691936224699,0-180,0,3.9691936224699,0.0641275197267599
9.12,9.0091645717621,4.03332114219666,0-180,0,4.03332114219666,0.0781171023845602
9.24,9.1351908445358,4.11143824458122,0-180,0,4.11143824458122,0.0702038407325798
9.36,9.2588460445404,4.1816420853138,0-180,0,4.1816420853138,0.10115429759025
9.48,9.3902903795242,4.28279638290405,0-180,0,4.28279638290405,0.0840168446302396
9.6,9.5106625556946,4.36681322753429,0-180,0,4.36681322753429,0.0705815851688403
9.72,9.6303963661194,4.43739481270313,0-180,0,4.43739481270313,0.0708118081092897
9.84,9.7495937347412,4.50820662081242,0-180,0,4.50820662081242,0.0722926110029203
9.96,9.8730880022049,4.58049923181534,0-180,0,4.58049923181534,0.0802908092737198
10.08,10.002601146698,4.66079004108906,0-180,0,4.66079004108906,0.0911433249711999
10.2,10.1289707422256,4.75193336606026,0-180,0,4.75193336606026,0.0855516642332006
10.32,10.2597123384475,4.83748503029346,0-180,0,4.83748503029346,0.0851016491651597
10.44,10.3796017169952,4.92258667945862,0-180,0,4.92258667945862,0.0937733799219105
10.56,10.5057513713836,5.01636005938053,0-180,0,5.01636005938053,0.0790797173976898
10.68,10.6235218048095,5.09543977677822,0-180,0,5.09543977677822,0.0806976109743101
10.8,10.7390016317367,5.17613738775253,0-180,0,5.17613738775253,0.0856451690197
10.92,10.8566433191299,5.26178255677223,0-180,0,5.26178255677223,0.101042166352269
11.04,10.9849655628204,5.3628247231245,0-180,0,5.3628247231245,0.0845909118652406
11.16,11.1022853851318,5.44741563498974,0-180,0,5.44741563498974,0.0855091959237999
11.28,11.2220299243927,5.53292483091354,0-180,0,5.53292483091354,0.0800751149654397
11.4,11.3388508558273,5.61299994587898,0-180,0,5.61299994587898,0.0829730182886097
11.52,11.4466112852096,5.69597296416759,0-180,0,5.69597296416759,0.11894069612027
11.64,11.5678739547729,5.81491366028786,0-180,0,5.81491366028786,0.0962704420089704
11.76,11.6843032836914,5.91118410229683,0-180,0,5.91118410229683,0.0968366861343402
11.88,11.79860830307,6.00802078843117,0-180,0,6.00802078843117,0.1111164689064
12,11.9317531585693,6.11913725733757,0-180,0,6.11913725733757,0.0924561172723797
12.12,12.0647317171097,6.21159337460995,0-180,0,6.21159337460995,0.0289481133222598
12.2,12.1271896362304,6.24054148793221,0-180,0,6.24054148793221,-0.0113826245069593
12.24,12.1294105052948,6.22915886342525,0-180,0,6.22915886342525,-0.0374015420675207
12.32,12.1507179737091,6.19175732135773,0-180,0,6.19175732135773,-0.0425428152084395
12.44,12.1518981456756,6.14921450614929,0-180,0,6.14921450614929,0
12.44,12.1518981456756,6.14921450614929,0-180,0,6.14921450614929,-0.0115554779767999
12.48,12.1518981456756,6.13765902817249,0-180,0,6.13765902817249,-0.0303842127323106
12.52,12.1518981456756,6.10727481544018,0-180,0,6.10727481544018,-0.0373218208551398
12.56,12.1477836370468,6.06995299458504,0-180,0,6.06995299458504,-0.0130537897348395
12.6,12.1377038955688,6.0568992048502,0-180,0,6.0568992048502,-0.0609237700700804
12.64,12.1224153041839,5.99597543478012,0-180,0,5.99597543478012,-0.0602744519710496
12.68,12.0902287960052,5.93570098280907,0-180,0,5.93570098280907,-0.0297736376524007
12.72,12.0762223005295,5.90592734515667,0-180,0,5.90592734515667,-0.0678669661283493
12.76,12.0408761501312,5.83806037902832,0-180,0,5.83806037902832,-0.0656671822071102
12.8,12.0010668039322,5.77239319682121,0-180,0,5.77239319682121,-0.05470514297485
12.84,11.9672065973282,5.71768805384636,0-180,0,5.71768805384636,-0.06197765469551
12.88,11.9220542907715,5.65571039915085,0-180,0,5.65571039915085,-0.0686284154653602
12.92,11.882888674736,5.58708198368549,0-180,0,5.58708198368549,-0.0703494995832399
12.96,11.8369048833847,5.51673248410225,0-180,0,5.51673248410225,-0.07371790707111
13,11.7955130338669,5.44301457703114,0-180,0,5.44301457703114,-0.0611279159784397
13.04,11.7497599124908,5.3818866610527,0-180,0,5.3818866610527,-0.06954781711101
13.08,11.7030787467956,5.31233884394169,0-180,0,5.31233884394169,-0.0621639192104402
13.12,11.6572344303131,5.25017492473125,0-180,0,5.25017492473125,-0.0618111342191598
13.16,11.6123449802398,5.18836379051209,0-180,0,5.18836379051209,-0.0652264803648004
13.2,11.5642690658569,5.12313731014729,0-180,0,5.12313731014729,-0.0657107681035995
13.24,11.5174430608749,5.05742654204369,0-180,0,5.05742654204369,-0.0625770539045405
13.28,11.4704990386963,4.99484948813915,0-180,0,4.99484948813915,-0.0553309917449898
13.32,11.4243811368942,4.93951849639416,0-180,0,4.93951849639416,-0.0548783689737302
13.36,11.380586028099,4.88464012742043,0-180,0,4.88464012742043,-0.0524789094924998
13.4,11.3316786289215,4.83216121792793,0-180,0,4.83216121792793,-0.0612404197454399
13.44,11.2781256437301,4.77092079818249,0-180,0,4.77092079818249,-0.05176104605198
13.48,11.2335205078125,4.71915975213051,0-180,0,4.71915975213051,-0.0502314418554306
13.52,11.1836904287338,4.66892831027508,0-180,0,4.66892831027508,-0.04512667655945
13.56,11.138876080513,4.62380163371563,0-180,0,4.62380163371563,-0.04321113228798
13.6,11.0961002111435,4.58059050142765,0-180,0,4.58059050142765,-0.05239993333816
13.64,11.0478097200393,4.52819056808949,0-180,0,4.52819056808949,-0.0474322587251699
13.68,11.0022443532943,4.48075830936432,0-180,0,4.48075830936432,-0.0474415719509098
13.72,10.9533315896988,4.43331673741341,0-180,0,4.43331673741341,-0.04080198705197
13.76,10.9066557884216,4.39251475036144,0-180,0,4.39251475036144,-0.0397928059101096
13.8,10.8652478456497,4.35272194445133,0-180,0,4.35272194445133,-0.04421770572662
13.84,10.8264577388763,4.30850423872471,0-180,0,4.30850423872471,-0.0517539680004102
13.88,10.7749700546264,4.2567502707243,0-180,0,4.2567502707243,-0.0371783971786499
13.92,10.7268136739731,4.21957187354565,0-180,0,4.21957187354565,-0.0371955335140299
13.96,10.684295296669,4.18237634003162,0-180,0,4.18237634003162,-0.0413581728935206
14,10.6423187255859,4.1410181671381,0-180,0,4.1410181671381,-0.0421807169914192
14.04,10.5917912721634,4.09883745014668,0-180,0,4.09883745014668,-0.0375043600797706
14.08,10.5540096759796,4.06133309006691,0-180,0,4.06133309006691,-0.0430539250373796
14.12,10.507071018219,4.01827916502953,0-180,0,4.01827916502953,-0.0381901860237202
14.16,10.4646223783493,3.98008897900581,0-180,0,3.98008897900581,-0.03849081695079
14.2,10.4246467351913,3.94159816205502,0-180,0,3.94159816205502,-0.0375956296920799
14.24,10.376324057579,3.90400253236294,0-180,0,3.90400253236294,-0.0287998467683801
14.28,10.3350877761841,3.87520268559456,0-180,0,3.87520268559456,-0.0379554927349099
14.32,10.2941411733627,3.83724719285965,0-180,0,3.83724719285965,-0.0484418123960499
14.36,10.2411568164825,3.7888053804636,0-180,0,3.7888053804636,-0.0337548553943603
14.4,10.1984024047851,3.75505052506924,0-180,0,3.75505052506924,-0.0283405184745797
14.44,10.1567316055298,3.72671000659466,0-180,0,3.72671000659466,-0.0344067811966
14.48,10.1192396879196,3.69230322539806,0-180,0,3.69230322539806,-0.0363796949386601
14.52,10.0710618495941,3.6559235304594,0-180,0,3.6559235304594,-0.02637170255184
14.56,10.0286132097244,3.62955182790756,0-180,0,3.62955182790756,-0.0283990055322598
14.6,9.992698431015,3.6011528223753,0-180,0,3.6011528223753,-0.0364653766155301
14.64,9.9508076906204,3.56468744575977,0-180,0,3.56468744575977,-0.0378232449293101
14.68,9.9086701869964,3.52686420083046,0-180,0,3.52686420083046,-0.0280715525150299
14.72,9.8638236522674,3.49879264831543,0-180,0,3.49879264831543,-0.0198330730199801
14.76,9.8276191949844,3.47895957529545,0-180,0,3.47895957529545,-0.0225696712732302
14.8,9.7850525379181,3.45638990402222,0-180,0,3.45638990402222,-0.0251509249210398
14.84,9.7450822591781,3.43123897910118,0-180,0,3.43123897910118,-0.0262793153524403
14.88,9.7051441669464,3.40495966374874,0-180,0,3.40495966374874,-0.0322721898555698
14.92,9.66941177845,3.37268747389317,0-180,0,3.37268747389317,-0.0341165810823498
14.96,9.6237552165985,3.33857089281082,0-180,0,3.33857089281082,-0.0287875533103903
15,9.5854318141937,3.30978333950043,0-180,0,3.30978333950043,-0.0238496810197901
15.04,9.5470708608627,3.28593365848064,0-180,0,3.28593365848064,-0.0276144593953997
15.08,9.502465724945,3.25831919908524,0-180,0,3.25831919908524,-0.0299867242574701
15.12,9.45869743824,3.22833247482777,0-180,0,3.22833247482777,-0.0285018235445098
15.16,9.4230026006698,3.19983065128326,0-180,0,3.19983065128326,-0.0369556248188001
15.2,9.3806827068329,3.16287502646446,0-180,0,3.16287502646446,-0.0328283756971302
15.24,9.3382823467254,3.13004665076733,0-180,0,3.13004665076733,-0.0263996422290798
15.28,9.2985266447067,3.10364700853825,0-180,0,3.10364700853825,-0.0107971951365502
15.32,9.2690545320511,3.0928498134017,0-180,0,3.0928498134017,-0.02755802124739
15.36,9.2287141084671,3.06529179215431,0-180,0,3.06529179215431,-0.0234281644225098
15.4,9.1861313581466,3.0418636277318,0-180,0,3.0418636277318,-0.0220986083149901
15.44,9.1528558731079,3.01976501941681,0-180,0,3.01976501941681,-0.0313127413392098
15.48,9.112166762352,2.9884522780776,0-180,0,2.9884522780776,-0.0290814787149403
15.52,9.0719926357269,2.95937079936266,0-180,0,2.95937079936266,-0.02098586410284
15.56,9.0324354171753,2.93838493525982,0-180,0,2.93838493525982,-0.0227201730012898
15.6,8.9937204122543,2.91566476225853,0-180,0,2.91566476225853,-0.0259455293416999
15.64,8.9583957195282,2.88971923291683,0-180,0,2.88971923291683,-0.0167522579431503
15.68,8.920533657074,2.87296697497368,0-180,0,2.87296697497368,-0.0286376103758799
15.72,8.8816148042679,2.8443293645978,0-180,0,2.8443293645978,-0.01700352877379
15.76,8.843092918396,2.82732583582401,0-180,0,2.82732583582401,-0.02708956599235
15.8,8.8027954101562,2.80023626983166,0-180,0,2.80023626983166,-0.0329893082380299
15.84,8.7566024065017,2.76724696159363,0-180,0,2.76724696159363,-0.0239666551351601
15.88,8.7156665325165,2.74328030645847,0-180,0,2.74328030645847,-0.0240439549088403
15.92,8.6761039495468,2.71923635154963,0-180,0,2.71923635154963,-0.0263120979070699
15.96,8.6353021860122,2.69292425364256,0-180,0,2.69292425364256,-0.02916362136602
16,8.5939478874206,2.66376063227654,0-180,0,2.66376063227654,-0.0219201669097
16.04,8.5495144128799,2.64184046536684,0-180,0,2.64184046536684,-0.0198127701878499
16.08,8.5096192359924,2.62202769517899,0-180,0,2.62202769517899,-0.0164147466421198
16.12,8.4729588031769,2.60561294853687,0-180,0,2.60561294853687,-0.0231806188821801
16.16,8.4309285879135,2.58243232965469,0-180,0,2.58243232965469,-0.0330556184053399
16.2,8.3905559778213,2.54937671124935,0-180,0,2.54937671124935,-0.0264028087258303
16.24,8.3434510231018,2.52297390252352,0-180,0,2.52297390252352,-0.0215638428926499
16.28,8.3008736371994,2.50141005963087,0-180,0,2.50141005963087,-0.0086409971118
16.32,8.266938328743,2.49276906251907,0-180,0,2.49276906251907,-0.0285925343632698
16.36,8.2255679368973,2.4641765281558,0-180,0,2.4641765281558,-0.0252010300755501
16.4,8.1756627559662,2.43897549808025,0-180,0,2.43897549808025,-0.0166449695825501
16.44,8.1384658813476,2.4223305284977,0-180,0,2.4223305284977,-0.00900477170945013
16.48,8.107738494873,2.41332575678825,0-180,0,2.41332575678825,-0.0212503597140299
16.52,8.0762332677841,2.39207539707422,0-180,0,2.39207539707422,-0.0193152576684898
16.56,8.0372285842895,2.37276013940573,0-180,0,2.37276013940573,-0.0279635190963798
16.6,8.0008631944656,2.34479662030935,0-180,0,2.34479662030935,-0.0200038775801601
16.64,7.9522562026977,2.32479274272919,0-180,0,2.32479274272919,-0.0137435272336002
16.68,7.9185676574707,2.31104921549559,0-180,0,2.31104921549559,-0.0179085880518
16.72,7.8821003437042,2.29314062744379,0-180,0,2.29314062744379,-0.0225942581892
16.76,7.8439968824386,2.27054636925459,0-180,0,2.27054636925459,-0.0247122719883901
16.8,7.7999871969223,2.2458340972662,0-180,0,2.2458340972662,-0.0196920707821899
16.84,7.759239077568,2.22614202648401,0-180,0,2.22614202648401,-0.01715719699859
16.88,7.7148753404617,2.20898482948542,0-180,0,2.20898482948542,-0.0191492959857
16.92,7.6762461662292,2.18983553349972,0-180,0,2.18983553349972,-0.0191012397408499
16.96,7.6374292373657,2.17073429375887,0-180,0,2.17073429375887,-0.0228779390454301
17,7.5917083024978,2.14785635471344,0-180,0,2.14785635471344,-0.0211937353014902
17.04,7.5563836097717,2.12666261941195,0-180,0,2.12666261941195,-0.0267159193754196
17.08,7.5123578310013,2.09994670003653,0-180,0,2.09994670003653,-0.00781398266554012
17.12,7.4725806713104,2.09213271737099,0-180,0,2.09213271737099,-0.0148491933941899
17.16,7.434149980545,2.0772835239768,0-180,0,2.0772835239768,-0.0181609764695101
17.2,7.39506483078,2.05912254750729,0-180,0,2.05912254750729,-0.0184481963515299
17.24,7.3527020215988,2.04067435115576,0-180,0,2.04067435115576,-0.02455301582813
17.28,7.3095935583114,2.01612133532763,0-180,0,2.01612133532763,-0.0218678265810102
17.32,7.2658038139343,1.99425350874662,0-180,0,1.99425350874662,-0.0188941136002501
17.36,7.2183018922806,1.97535939514637,0-180,0,1.97535939514637,-0.01570750027895
17.4,7.1755367517471,1.95965189486742,0-180,0,1.95965189486742,-0.0126408413052599
17.44,7.1402388811111,1.94701105356216,0-180,0,1.94701105356216,-0.0163946300745001
17.48,7.0957839488983,1.93061642348766,0-180,0,1.93061642348766,-0.01751538366079
17.52,7.0561516284942,1.91310103982687,0-180,0,1.91310103982687,-0.01023449003696
17.56,7.0184129476547,1.90286654978991,0-180,0,1.90286654978991,-0.01596324145794
17.6,6.9771766662597,1.88690330833197,0-180,0,1.88690330833197,-0.0138074159622199
17.64,6.9391751289367,1.87309589236975,0-180,0,1.87309589236975,-0.02239923924208
17.68,6.8993496894836,1.85069665312767,0-180,0,1.85069665312767,-0.0200394541025202
17.72,6.8556672334671,1.83065719902515,0-180,0,1.83065719902515,-0.0186026096343999
17.76,6.8139374256134,1.81205458939075,0-180,0,1.81205458939075,-0.0149207189679101
17.8,6.7781352996826,1.79713387042284,0-180,0,1.79713387042284,-0.0130364671349499
