"Total Time (s)","Cycle Elapsed Time (s)","Total Cycles","Elapsed Cycles","Step","Total Cycle Count(Linear Waveform)","Total Cycle Count(Rotary Waveform)","Position(Linear:Position) (mm)","Load(Linear:Load) (N)","Displacement(Linear:Digital Position) (mm)","Rotation(Rotary:Rotation) (deg)","Torque(Rotary:Torque) (N·m)","Rotary Displacement(Rotary:Digital Rotation) (deg)",
0,0,1,1,1,1,1,-5.3054879857939,-0.0256113708019257,-5.31015593229083,-31.481950879097,-0.00211708247661591,-31.4617109298706,
0.24,0.24,1,1,1,1,1,-5.30330287956742,-0.130729749798775,-5.30826095166286,-31.4397704601288,0.163131952285767,-31.4195144176483,
0.32,0.32,1,1,1,1,1,-5.30302750611498,-0.303760170936584,-5.30798826041892,-31.3949346542358,0.276291277259588,-31.3746786117554,
0.4,0.4,1,1,1,1,1,-5.30279951835404,-0.525806099176407,-5.30775937858794,-31.3487792015076,0.415864307433367,-31.3285338878632,
0.48,0.48,1,1,1,1,1,-5.30206727531006,-1.05968676507473,-5.30702847664722,-31.2800127267838,0.576181802898645,-31.2597727775574,
0.52,0.52,1,1,1,1,1,-5.30124339012687,-1.42521224915981,-5.30620593256714,-31.2392592430115,0.689530279487371,-31.2190139293671,
0.6,0.6,1,1,1,1,1,-5.29900776896512,-2.06873752176762,-5.30397120547132,-31.151829957962,0.906214211136103,-31.1315846443176,
0.64,0.64,1,1,1,1,1,-5.29779272830973,-2.43893824517727,-5.30275661184873,-31.1031371355057,1.00722992792726,-31.0828542709351,
0.72,0.72,1,1,1,1,1,-5.29158922603787,-2.66727991402149,-5.29655400363618,-31.0089057683945,1.17605552077293,-30.9886014461517,
0.8,0.8,1,1,1,1,1,-5.28263154220681,-2.95365229249001,-5.28759766089467,-30.9122067689896,1.35665349662304,-30.8919453620911,
0.88,0.88,1,1,1,1,1,-5.26935147864911,-2.81841494143009,-5.27432027952379,-30.8157598972321,1.48433819413185,-30.7956433296204,
0.96,0.96,1,1,1,1,1,-5.25715547454297,-2.82312743365765,-5.26212651057145,-30.7231914997101,1.62071511149406,-30.7029461860657,
1,1,1,1,1,1,1,-5.25208341741415,-2.96060927212238,-5.25705534750384,-30.6858283281326,1.6983637586236,-30.6655561923981,
1.04,1.04,1,1,1,1,1,-5.24498942177012,-2.87735834717751,-5.24996403405694,-30.6331121921539,1.79093815386295,-30.6128346920013,
1.12,1.12,1,1,1,1,1,-5.22504496303559,-2.80734151601791,-5.23002225749813,-30.5407208204269,1.93906836211681,-30.5204486846924,
1.2,1.2,1,1,1,1,1,-5.21240505334784,-2.8730183839798,-5.21738681813757,-30.4492092132568,2.05998867750168,-30.428878068924,
1.28,1.28,1,1,1,1,1,-5.18574702560568,-2.39608809351921,-5.19073013145546,-30.3464591503143,2.18993853777647,-30.3261387348175,
1.36,1.36,1,1,1,1,1,-5.1672089384318,-1.63142569363117,-5.17223585366365,-30.258863568306,2.29049492627382,-30.2386236190796,
1.44,1.44,1,1,1,1,1,-5.14531674896307,-0.79757533967495,-5.15031058358129,-30.1703077554703,2.41828113794327,-30.1501858234406,
1.52,1.52,1,1,1,1,1,-5.12844833686201,-0.260351225733757,-5.13347927534268,-30.095506310463,2.52269841730595,-30.0752019882202,
1.6,1.6,1,1,1,1,1,-5.10738003257645,0.380678102374077,-5.11238146672349,-30.0129210948944,2.6420259848237,-29.99267578125,
1.68,1.68,1,1,1,1,1,-5.09263235368701,0.741705298423767,-5.09763557594878,-29.9210232496262,2.76334099471569,-29.9007940292358,
1.76,1.76,1,1,1,1,1,-5.07986772128298,0.991420820355415,-5.08487586090656,-29.8268240690231,2.91881579905748,-29.8065948486328,
1.8,1.8,1,1,1,1,1,-5.071777732048,1.19664706289768,-5.07678721276257,-29.7767579555511,3.02254855632782,-29.7565448284149,
1.88,1.88,1,1,1,1,1,-5.05790087699841,1.60089693963528,-5.06291303989881,-29.6839052438736,3.13226915895939,-29.6635580062866,
1.96,1.96,1,1,1,1,1,-5.04880416533666,1.75425782799721,-5.05381901043085,-29.5829844474792,3.28248329460621,-29.562771320343,
2.04,2.04,1,1,1,1,1,-5.04061716954456,2.06629745662212,-5.04563156759029,-29.4940048456192,3.40108200907707,-29.4737648963928,
2.12,2.12,1,1,1,1,1,-5.03439846808864,2.28253193199635,-5.03941957164639,-29.3995481729507,3.53648029267788,-29.3792009353638,
2.24,2.24,1,1,1,1,1,-5.02965811080026,2.7081836014986,-5.03467876731528,-29.2555886507034,3.72945070266724,-29.2353487014771,
2.28,2.28,1,1,1,1,1,-5.02956870383518,2.84541398286819,-5.03458936035006,-29.2073678970337,3.76420319080353,-29.187068939209,
2.36,2.36,1,1,1,1,1,-5.0303702372771,3.03118489682674,-5.03539223489779,-29.1209203004837,3.8745678961277,-29.1006481647491,
2.4,2.4,1,1,1,1,1,-5.03028083031202,3.122603520751,-5.03530282793256,-29.0711492300034,3.94663028419018,-29.0508878231049,
2.44,2.44,1,1,1,1,1,-5.03019187038177,3.0928198248148,-5.03521386800216,-29.0298056602478,3.98396998643875,-29.0095496177673,
2.52,2.52,1,1,1,1,1,-5.03096434656003,2.89580784738064,-5.03593851145532,-28.9420384168625,4.08692248165607,-28.9217662811279,
2.6,2.6,1,1,1,1,1,-5.03246280729472,2.77064740657806,-5.03748122864029,-28.8548773527145,4.20540645718575,-28.8346910476685,
2.68,2.68,1,1,1,1,1,-5.03660100867331,2.69481912255287,-5.04161674781682,-28.7692075967789,4.30861003696918,-28.7489676475525,
2.8,2.8,1,1,1,1,1,-5.04024791877879,2.7029775083065,-5.04526723420699,-28.6405152082443,4.44969795644283,-28.6202645301819,
2.92,2.92,1,1,1,1,1,-5.05415696033581,2.39266082644463,-5.05917404061306,-28.5193973779678,4.63701263070107,-28.4991896152496,
3.04,3.04,1,1,1,1,1,-5.06584781508927,2.23845243453979,-5.07086042503774,-28.3856731653214,4.80063483119011,-28.3654224872589,
3.12,3.12,1,1,1,1,1,-5.0719310649931,2.21738591790199,-5.07693920460345,-28.3013069629669,4.93464544415474,-28.2810616493225,
3.24,3.24,1,1,1,1,1,-5.0927852395973,1.95162370800972,-5.09779069703345,-28.1679207086563,5.08931390941143,-28.1476163864136,
3.36,3.36,1,1,1,1,1,-5.10518062123556,1.77456997334957,-5.1101780320655,-28.0457085371017,5.20105324685574,-28.0254256725311,
3.48,3.48,1,1,1,1,1,-5.12946534108976,1.51101499795914,-5.13446364602982,-27.9207175970078,5.32421506941319,-27.9004454612732,
3.56,3.56,1,1,1,1,1,-5.13573634562025,1.64919532835484,-5.1407283920832,-27.8377944231033,5.42909502983093,-27.8175115585327,
3.68,3.68,1,1,1,1,1,-5.16202467556182,1.56410969793797,-5.16701493392928,-27.7093327045441,5.57619817554951,-27.6890766620636,
3.8,3.8,1,1,1,1,1,-5.17410892096161,1.71104446053505,-5.17909828527956,-27.5869488716125,5.71997314691544,-27.5666928291321,
3.92,3.92,1,1,1,1,1,-5.19128668116185,1.66917219758034,-5.19626978702086,-27.4588304758072,5.87074607610703,-27.4385690689087,
4.04,4.04,1,1,1,1,1,-5.20583230031021,1.6365759074688,-5.21082032357655,-27.3322892189026,5.96956871449947,-27.3120439052582,
4.16,4.16,1,1,1,1,1,-5.22394838660892,1.63300894200802,-5.22893283362685,-27.2092938423157,6.09646998345852,-27.1890163421631,
4.28,4.28,1,1,1,1,1,-5.23482519094535,1.78622081875801,-5.23980203838936,-27.0875430107117,6.19612634181976,-27.0672762393951,
4.36,4.36,1,1,1,1,1,-5.24921568900931,1.68095342814922,-5.25418940723352,-26.995757818222,6.3245102763176,-26.9754910469055,
4.48,4.48,1,1,1,1,1,-5.25686669004577,1.98036432266235,-5.26183906717825,-26.8721294403076,6.46711885929108,-26.8518626689911,
4.6,4.6,1,1,1,1,1,-5.26792543755613,2.05501914024353,-5.27289736767222,-26.7510384321213,6.60502836108208,-26.7307877540588,
4.72,4.72,1,1,1,1,1,-5.27983891565263,2.10712663829327,-5.28480816357962,-26.6306501626968,6.71512484550476,-26.6103887557983,
4.8,4.8,1,1,1,1,1,-5.28885963139407,2.20131129026413,-5.29382530305748,-26.5456187725067,6.82154521346092,-26.5253627300262,
4.92,4.92,1,1,1,1,1,-5.30874016414857,2.20878049731255,-5.31370270660134,-26.4232778549194,6.96908757090569,-26.4029681682587,
5.04,5.04,1,1,1,1,1,-5.31673806420953,2.47552990913391,-5.32169926557115,-26.2990218400955,7.12496116757393,-26.278760433197,
5.16,5.16,1,1,1,1,1,-5.33498647281655,2.59033404290676,-5.33994499199963,-26.173215508461,7.24965780973434,-26.1531686782837,
5.28,5.28,1,1,1,1,1,-5.34927012955724,2.44389288127422,-5.35422954283378,-26.0589212179184,7.33337700366974,-26.0385954380035,
5.36,5.36,1,1,1,1,1,-5.36301645043782,2.45077535510063,-5.3679696052497,-25.9679728746414,7.46252685785294,-25.9478938579559,
5.48,5.48,1,1,1,1,1,-5.38210528451657,2.37001106142998,-5.38705173383787,-25.857321023941,7.54514038562775,-25.836968421936,
5.68,5.68,1,1,1,1,1,-5.40413069036327,1.9831582903862,-5.40907445751232,-25.7899439334869,7.42340162396431,-25.769602060318,
5.72,5.72,1,1,2,1,1,-5.41005390179962,1.90850347280502,-5.41499498674958,-25.7721447944641,7.3830209672451,-25.751770734787,
5.72,0,1,1,2,1,1,-5.41005390179962,1.90850347280502,-5.41499498674958,-25.7721447944641,7.3830209672451,-25.751770734787,
5.76,0.04,1,1,2,1,1,-5.41827263706431,1.48579478263855,-5.42320791057524,-25.7746660709381,7.35692083835602,-25.7533800601959,
5.8,0.0800000000000001,1,1,2,1,1,-5.42342605453135,1.46391801536083,-5.42832869450855,-25.7747304439545,7.29142874479294,-25.754474401474,
5.84,0.12,1,1,2,1,1,-5.42844267934181,1.30408443510532,-5.43343919664087,-25.7749879360199,7.25190192461014,-25.7547426223755,
5.88,0.16,1,1,2,1,1,-5.43172972641287,1.30468979477882,-5.43667081139896,-25.7824659347534,7.2177454829216,-25.7622849941254,
5.92,0.2,1,1,2,1,1,-5.43757783599855,1.07334926724434,-5.44249567518343,-25.7968908548355,7.12259858846664,-25.776618719101,
5.96,0.24,1,1,2,1,1,-5.44368567281778,0.860569998621941,-5.44862049933623,-25.8178979158401,7.04587548971176,-25.7976150512695,
6,0.28,1,1,2,1,1,-5.44861110252387,0.824863091111183,-5.45354458794605,-25.8369415998459,6.96310997009277,-25.816798210144,
6.04,0.32,1,1,2,1,1,-5.45254098567382,0.649625435471535,-5.457560748824,-25.859466791153,6.8606898188591,-25.8392107486725,
6.08,0.36,1,1,2,1,1,-5.45503454592982,0.615408644080162,-5.4599662432234,-25.8841699361801,6.80721774697304,-25.8639085292816,
6.12,0.4,1,1,2,1,1,-5.45566844131221,0.646859407424927,-5.46060103267651,-25.9088140726089,6.71267583966255,-25.8883595466614,
6.16,0.44,1,1,2,1,1,-5.45703234456446,0.672526657581329,-5.46196493593103,-25.9463864564896,6.59856051206589,-25.9261465072632,
6.2,0.48,1,1,2,1,1,-5.45876549858248,0.812765210866928,-5.46369943105641,-25.9752148389816,6.48991093039513,-25.9549856185913,
6.24,0.52,1,1,2,1,1,-5.45992242471057,0.752676278352737,-5.46485367497748,-26.0152870416641,6.37819990515709,-25.9950578212738,
6.28,0.560000000000001,1,1,2,1,1,-5.4608509160429,0.741453841328621,-5.46578216631135,-26.0566359758377,6.26795589923859,-26.0363960266113,
6.32,0.600000000000001,1,1,2,1,1,-5.46401592260662,0.619823113083839,-5.46894672584552,-26.1048567295074,6.15901462733746,-26.0845899581909,
6.36,0.640000000000001,1,1,2,1,1,-5.46831863280095,0.528525561094284,-5.47324809494254,-26.1448967456818,6.03516921401024,-26.1247372627258,
6.4,0.680000000000001,1,1,2,1,1,-5.47167139399133,0.454336404800415,-5.47660130317334,-26.1961805820465,5.9001699090004,-26.1758923530579,
6.44,0.720000000000001,1,1,2,1,1,-5.47334688051687,0.473828986287117,-5.47827678970168,-26.2433016300201,5.79457506537437,-26.2230670452118,
6.48,0.760000000000001,1,1,2,1,1,-5.47672288751818,0.337027013301849,-5.4816510085693,-26.2920105457306,5.68902716040611,-26.2717759609222,
6.52,0.800000000000001,1,1,2,1,1,-5.47848107548641,0.372147187590599,-5.4834096435753,-26.3405478000641,5.57433553040028,-26.3203024864197,
6.56,0.840000000000001,1,1,2,1,1,-5.48042970029027,0.433893874287605,-5.48535737431274,-26.379616856575,5.46957850456238,-26.3593769073486,
6.6,0.880000000000001,1,1,2,1,1,-5.48150034869706,0.529363751411438,-5.48644143376611,-26.434189081192,5.36420568823814,-26.4139437675476,
6.64,0.920000000000001,1,1,2,1,1,-5.48289465031744,0.42228028178215,-5.48781248957785,-26.4802479743958,5.2691325545311,-26.4599919319153,
6.68,0.96,1,1,2,1,1,-5.4848557920964,0.44812448322773,-5.48976916101182,-26.5204221010208,5.17742447555065,-26.5001714229584,
6.72,1,1,1,2,1,1,-5.48619466139843,0.420231372117996,-5.49116078042556,-26.570890545845,5.06648235023022,-26.5505754947662,
6.76,1.04,1,1,2,1,1,-5.48697160792494,0.453004613518715,-5.49189570567972,-26.6186231374741,4.97095920145512,-26.5983617305756,
6.8,1.08,1,1,2,1,1,-5.48779594014295,0.49094669520855,-5.49271959086427,-26.667053103447,4.88176606595516,-26.6469419002533,
6.84,1.12,1,1,2,1,1,-5.48922242827076,0.547720119357109,-5.49414786713376,-26.7110681533813,4.78651747107506,-26.6910374164581,
6.88,1.16,1,1,2,1,1,-5.49065070453786,0.51611103117466,-5.49557614340324,-26.7599594593048,4.67578507959843,-26.7397356033325,
6.92,1.2,1,1,2,1,1,-5.49179287851672,0.510029494762421,-5.4967165292447,-26.8103957176209,4.58019971847534,-26.7901289463043,
6.96,1.24,1,1,2,1,1,-5.4929354995304,0.461284071207047,-5.49786049136476,-26.8539708852768,4.5065276324749,-26.8337202072144,
7,1.28,1,1,2,1,1,-5.49445273572776,0.413693487644196,-5.49937817459947,-26.9009041786194,4.41145524382591,-26.8806481361389,
7.04,1.32,1,1,2,1,1,-5.49580591014419,0.406000763177872,-5.50072956087886,-26.9535505771637,4.30924408137798,-26.9332945346832,
7.08,1.36,1,1,2,1,1,-5.4972677140232,0.338805839419365,-5.50219136476031,-26.9990462064743,4.22883667051792,-26.9787847995758,
7.12,1.4,1,1,2,1,1,-5.50045194308442,0.242860987782478,-5.50537648789648,-27.0437425374985,4.15614806115627,-27.0234811306,
7.16,1.44,1,1,2,1,1,-5.5042642560753,0.12601725757122,-5.50918835385889,-27.0912712812424,4.07136157155037,-27.0710527896881,
7.2,1.48,1,1,2,1,1,-5.50954552550239,-0.159041956067085,-5.51443654271765,-27.1368205547333,3.98065522313118,-27.116607427597,
7.24,1.52,1,1,2,1,1,-5.51331715832416,-0.256877392530441,-5.51824080908802,-27.1884369850159,3.91082800924778,-27.1681594848633,
7.28,1.56,1,1,2,1,1,-5.51556887273962,-0.306814908981323,-5.5204902883331,-27.2276240587235,3.86298932135105,-27.2074592113495,
7.32,1.6,1,1,2,1,1,-5.52032085293346,-0.560199841856956,-5.52524092743038,-27.2760754823685,3.77302765846252,-27.2557818889618,
7.36,1.64,1,1,2,1,1,-5.52204774846392,-0.552190467715263,-5.52696782296372,-27.3208630084991,3.71306985616684,-27.3005962371826,
7.4,1.68,1,1,2,1,1,-5.52371429429296,-0.648191198706627,-5.52863526286518,-27.3730266094208,3.62720675766468,-27.3527598381042,
7.44,1.72,1,1,2,1,1,-5.52600355963375,-0.711344182491302,-5.53092363414014,-27.4194180965424,3.56400795280933,-27.3991620540619,
7.48,1.76,1,1,2,1,1,-5.52693383910538,-0.798413529992104,-5.53185391361332,-27.4661529064178,3.48944179713726,-27.4459075927734,
7.52,1.8,1,1,2,1,1,-5.52868755672536,-0.874502584338188,-5.53360763123622,-27.5084137916565,3.41145694255829,-27.488157749176,
7.56,1.84,1,1,2,1,1,-5.53029464692262,-0.921972095966339,-5.53520935701825,-27.5567364692688,3.32941077649593,-27.536598443985,
7.6,1.88,1,1,2,1,1,-5.53129555789665,-1.03660859167576,-5.53620669171534,-27.5997161865234,3.26817035675049,-27.5794172286987,
7.64,1.92,1,1,2,1,1,-5.53285883868102,-1.11148692667484,-5.53777667802471,-27.6457911729813,3.18352654576302,-27.6256692409515,
7.68,1.96,1,1,2,1,1,-5.53383069239141,-1.08880922198296,-5.53874629656258,-27.6906913518906,3.12031097710133,-27.6704728603363,
7.72,2,1,1,2,1,1,-5.53385617337646,-1.1693499982357,-5.53877133051285,-27.7327001094818,3.04837413132191,-27.7124011516571,
7.76,2.04,1,1,2,1,1,-5.53385617337646,-1.08791515231133,-5.53877133051285,-27.7809423208237,2.96715367585421,-27.7606809139252,
7.8,2.08,1,1,2,1,1,-5.53385617337646,-1.10975466668606,-5.53877133051285,-27.8246623277664,2.90255527943373,-27.8045189380646,
7.84,2.12,1,1,2,1,1,-5.53385617337646,-1.16629526019096,-5.53877133051285,-27.8672987222672,2.83536911010742,-27.8470695018768,
7.88,2.16,1,1,2,1,1,-5.5338798662222,-1.17252580821514,-5.53879636446311,-27.9140818119049,2.74510364979506,-27.893922328949,
7.92,2.2,1,1,2,1,1,-5.534228553386,-1.24556012451649,-5.5391468397668,-27.961106300354,2.68322099000216,-27.9406249523163,
7.96,2.24,1,1,2,1,1,-5.53458349903736,-1.28243118524551,-5.53950089134909,-28.0014359951019,2.63404529541731,-27.9812014102936,
8,2.28,1,1,2,1,1,-5.53460942705723,-1.27027742564678,-5.53952413716005,-28.0452686548233,2.56560202687979,-28.0251359939575,
8.04,2.32,1,1,2,1,1,-5.53460942705723,-1.28963962197304,-5.53952413716005,-28.0948787927628,2.50183008611202,-28.0746173858643,
8.08,2.36,1,1,2,1,1,-5.53460674484828,-1.39340758323669,-5.5395232430904,-28.1338083744049,2.4396862834692,-28.1135630607605,
8.12,2.4,1,1,2,1,1,-5.5345173378832,-1.51816755533218,-5.53943428316,-28.1746852397919,2.37656831741333,-28.1544184684753,
8.16,2.44,1,1,2,1,1,-5.53442837795295,-1.59600749611855,-5.53934487619477,-28.2204115390778,2.32328791171312,-28.200101852417,
8.2,2.48,1,1,2,1,1,-5.53433897098787,-1.72246247529984,-5.53925546922955,-28.2664328813553,2.23336089402437,-28.2463109493256,
8.24,2.52,1,1,2,1,1,-5.5342495640228,-1.76087021827698,-5.53916650929915,-28.3112847805023,2.15816330164671,-28.29106092453,
8.28,2.56,1,1,2,1,1,-5.53358124695885,-1.92800536751747,-5.53849863926891,-28.3540338277817,2.08968240767717,-28.3337831497192,
8.32,2.6,1,1,2,1,1,-5.53279893601442,-2.04588286578655,-5.53771364611422,-28.3981347084045,2.0203648135066,-28.377857208252,
8.36,2.64,1,1,2,1,1,-5.53288789594467,-2.16696411371231,-5.53780305307945,-28.4468007087708,1.94944590330124,-28.4265339374542,
8.4,2.68,1,1,2,1,1,-5.53284051025318,-2.29340977966785,-5.53775745552718,-28.4901130199432,1.89447235316038,-28.4699642658234,
8.44,2.72,1,1,2,1,1,-5.53248377646253,-2.53765843808651,-5.53740027470111,-28.5397017002106,1.81573387235403,-28.519606590271,
8.48,2.76,1,1,2,1,1,-5.53201438989587,-2.63956375420094,-5.5369313351685,-28.585519194603,1.73616260290146,-28.5652685165405,
8.52,2.8,1,1,2,1,1,-5.53114624826498,-2.94063240289688,-5.53606498167546,-28.6324685811996,1.68008897453547,-28.6122393608093,
8.56,2.84,1,1,2,1,1,-5.52670719244891,-3.04386951029301,-5.53162458474751,-28.6749655008316,1.63683537393808,-28.6547791957855,
8.6,2.88,1,1,2,1,1,-5.51940979595933,-2.97079794108868,-5.52432718824577,-28.7200748920441,1.59768834710121,-28.6998510360718,
8.64,2.92,1,1,2,1,1,-5.51552282815261,-3.25486995279789,-5.52044379671118,-28.7671262025833,1.53732458129525,-28.7468862533569,
8.68,2.96,1,1,2,1,1,-5.51279144536951,-3.40708531439304,-5.51771286095836,-28.813185095787,1.48690985515714,-28.792827129364,
8.72,3,1,1,2,1,1,-5.50672294761491,-3.40238213539124,-5.51164391615882,-28.8577204942703,1.43037680536509,-28.8374376296997,
8.76,3.04,1,1,2,1,1,-5.50023647229858,-3.50811518728733,-5.50515967600581,-28.9075720310211,1.3700089417398,-28.8872408866882,
8.8,3.08,1,1,2,1,1,-5.49201773703389,-3.46140004694462,-5.49694764624981,-28.9502030611038,1.32350148633122,-28.9299309253693,
8.84,3.12,1,1,2,1,1,-5.48341812809796,-3.26632522046566,-5.48835161357816,-28.992919921875,1.27912685275078,-28.9726746082306,
8.88,3.16,1,1,2,1,1,-5.47456907372947,-3.27586196362972,-5.47950032402079,-29.0352344512939,1.23579250648618,-29.0149891376495,
8.92,3.2,1,1,2,1,1,-5.46813624259219,-3.26882116496563,-5.47305721107178,-29.0778332948685,1.18237938731909,-29.0575611591339,
8.96,3.24,1,1,2,1,1,-5.45988621488972,-3.15180979669094,-5.46481880626104,-29.125480055809,1.11501961946487,-29.1052186489105,
9,3.28,1,1,2,1,1,-5.44925170342864,-3.10845673084259,-5.45418474181707,-29.1688084602356,1.07113597914577,-29.1485524177551,
9.04,3.32,1,1,2,1,1,-5.44453414491636,-3.32778319716454,-5.44948640579445,-29.2105168104172,1.01280771195889,-29.1902339458466,
9.08,3.36,1,1,2,1,1,-5.44130923568603,-3.50745394825935,-5.44621008755374,-29.2597836256027,0.967870838940144,-29.2394363880157,
9.12,3.4,1,1,2,1,1,-5.42983340468358,-3.36219556629658,-5.43478477146752,-29.3005210161209,0.930817984044552,-29.2802810668945,
9.16,3.44,1,1,2,1,1,-5.41781263822899,-3.20592895150185,-5.42275059394811,-29.3451207876205,0.867685582488775,-29.3247628211975,
9.2,3.48,1,1,2,1,1,-5.41300433164716,-3.45608219504356,-5.41794184032343,-29.3907988071442,0.80984877422452,-29.370424747467,
9.24,3.52,1,1,2,1,1,-5.40470244790494,-3.3857673406601,-5.40964174470668,-29.4335693120956,0.765956752002239,-29.413275718689,
9.28,3.56,1,1,2,1,1,-5.39430352379684,-3.31373885273933,-5.39924237354643,-29.4779813289642,0.726859737187624,-29.4578218460083,
