"Total Time (s)","Cycle Elapsed Time (s)","Total Cycles","Elapsed Cycles","Step","Total Cycle Count(Linear Waveform)","Total Cycle Count(Rotary Waveform)","Position(Linear:Position) (mm)","Load(Linear:Load) (N)","Displacement(Linear:Digital Position) (mm)","Rotation(Rotary:Rotation) (deg)","Torque(Rotary:Torque) (N·m)","Rotary Displacement(Rotary:Digital Rotation) (deg)",
0,0,1,1,1,1,1,20.7129437858783,0.0889971852302551,20.7131816429273,-34.6041119098663,-0.0168783590197563,-34.5844352245331,
0.28,0.28,1,1,1,1,1,20.7129437858783,-0.134129077196121,20.7131816429273,-34.5799881219864,0.0878002494573593,-34.559737443924,
0.4,0.4,1,1,1,1,1,20.7129437858783,-0.292370095849037,20.7131816429273,-34.5161944627762,0.226667243987322,-34.4959008693695,
0.52,0.52,1,1,1,1,1,20.7129437858783,-0.459831207990646,20.7131816429273,-34.4439196586609,0.385274644941092,-34.4236958026886,
0.6,0.6,1,1,1,1,1,20.7129437858783,-0.712694600224495,20.7131816429273,-34.3757754564285,0.531072169542313,-34.35551404953,
0.68,0.68,1,1,1,1,1,20.7129437858783,-0.862926244735718,20.7131816429273,-34.2965000867844,0.642398744821548,-34.2762386798859,
0.76,0.76,1,1,1,1,1,20.7129437858783,-1.0223500430584,20.7131816429273,-34.2308020591736,0.792952813208103,-34.2104816436768,
0.88,0.88,1,1,1,1,1,20.7129437858783,-1.08151696622372,20.7131816429273,-34.1406744718552,0.932751037180424,-34.1203594207764,
0.96,0.96,1,1,1,1,1,20.7141257459566,-1.1805072426796,20.7150520366399,-34.0774762630463,1.03828767314553,-34.0572202205658,
1.04,1.04,1,1,1,1,1,20.7162679368398,-1.31566077470779,20.7179076951092,-34.0213966369629,1.14526962861419,-34.0011298656464,
1.16,1.16,1,1,1,1,1,20.7191718750655,-1.39405019581318,20.7199837248417,-33.9279860258102,1.28097664564848,-33.9078104496002,
1.28,1.28,1,1,1,1,1,20.7222474746642,-1.26329250633717,20.722821501918,-33.848163485527,1.3996472582221,-33.8280308246613,
1.4,1.4,1,1,1,1,1,20.7295466592931,-1.24253332614899,20.7301242628377,-33.75612616539,1.5205904841423,-33.7358593940735,
1.48,1.48,1,1,1,1,1,20.7324023177576,-1.20898708701134,20.7329817094463,-33.6862868070602,1.62176266312599,-33.6660468578339,
1.64,1.64,1,1,1,1,1,20.7427449154777,-0.876476988196373,20.7433278834622,-33.578537106514,1.73958409577608,-33.5583293437958,
1.76,1.76,1,1,1,1,1,20.7536722347494,-0.747833400964737,20.7542498383342,-33.4951686859131,1.85187254101038,-33.4748589992523,
1.92,1.92,1,1,1,1,1,20.7572950049743,-0.650249421596527,20.7578797611224,-33.3924347162247,1.97035484015942,-33.3720874786377,
2.08,2.08,1,1,1,1,1,20.7715643566006,-0.531692057847977,20.7721401720759,-33.2813483476639,2.08881758153439,-33.2610869407654,
2.24,2.24,1,1,1,1,1,20.7888091720246,0.21061860024929,20.7893796231108,-33.1544476747513,2.16511320322752,-33.1341862678528,
2.4,2.4,1,1,1,1,1,20.8095730455941,0.563841313123703,20.8101470729935,-33.0412423610687,2.28159967809916,-33.0212116241455,
2.56,2.56,1,1,1,1,1,20.8201892286273,0.622952356934547,20.8211387652984,-32.9344421625137,2.39349212497473,-32.9142129421234,
2.72,2.72,1,1,1,1,1,20.8260096220538,0.688144937157631,20.8265836494806,-32.8254264593124,2.49179769307375,-32.8052294254303,
2.88,2.88,1,1,1,1,1,20.8336521294286,0.665141269564629,20.8342154280323,-32.717998623848,2.59241685271263,-32.6977157592773,
3.04,3.04,1,1,1,1,1,20.8350790645912,0.439733266830444,20.8356441513366,-32.6245075464249,2.71057356148958,-32.6042568683624,
3.2,3.2,1,1,1,1,1,20.8359802867992,0.386331230401993,20.8361716524314,-32.5151056051254,2.83057019114494,-32.494854927063,
3.36,3.36,1,1,1,1,1,20.840266456705,0.282591208815575,20.8401663556377,-32.4053227901459,2.95280478894711,-32.3850989341736,
3.52,3.52,1,1,1,1,1,20.8445508384715,0.243987888097763,20.8444507374114,-32.3029267787933,3.08351553976536,-32.2826278209686,
3.68,3.68,1,1,1,1,1,20.848835220238,0.226767733693123,20.8501638424893,-32.2046989202499,3.2090287655592,-32.1842443943024,
3.84,3.84,1,1,1,1,1,20.8534933231185,0.326409935951233,20.8536846887799,-32.095747590065,3.33041772246361,-32.0755398273468,
3.96,3.96,1,1,1,1,1,20.8595175644254,0.290106981992722,20.8590401659969,-32.0164453983307,3.43190915882587,-31.9962537288666,
4.12,4.12,1,1,1,1,1,20.8626557488996,0.239396467804909,20.8631832847655,-31.9155943393707,3.55468429625034,-31.8953061103821,
4.24,4.24,1,1,1,1,1,20.8637286324805,0.173775479197502,20.8642543802089,-31.8338406085968,3.65590862929821,-31.8136060237885,
4.4,4.4,1,1,1,1,1,20.8641238112661,0.166520476341248,20.8652682551946,-31.7258763313293,3.76915894448757,-31.7056095600128,
4.52,4.52,1,1,1,1,1,20.8654076952846,0.116629526019096,20.8659763583592,-31.6422933340073,3.86988073587418,-31.6220211982727,
4.68,4.68,1,1,1,1,1,20.8704574006722,0.189179554581642,20.8710206993372,-31.5380895137787,3.98337207734585,-31.5177476406097,
4.84,4.84,1,1,1,1,1,20.8718861239741,0.0556465238332748,20.8724494226415,-31.4308333396912,4.10218872129917,-31.4105987548828,
5,5,1,1,1,1,1,20.8750350372841,0.0726711004972458,20.8755965478175,-31.3292849063873,4.22575660049915,-31.3091254234314,
5.16,5.16,1,1,1,1,1,20.8790672914091,0.0762101262807846,20.8795197254516,-31.2225329875946,4.36072237789631,-31.2023949623108,
5.32,5.32,1,1,1,1,1,20.8824164763209,0.095367431640625,20.8833964114638,-31.1270946264267,4.47130911052227,-31.1069512367249,
5.48,5.48,1,1,1,1,1,20.887285579639,0.221990048885345,20.8864988331571,-31.0210990905762,4.58521358668804,-31.0008430480957,
5.68,5.68,1,1,1,1,1,20.8904219759739,0.354740768671036,20.8907832149307,-30.8915054798126,4.71227616071701,-30.8711743354797,
5.84,5.84,1,1,1,1,1,20.896133292903,0.482257455587387,20.8950675967044,-30.7861751317978,4.79343123733997,-30.7659244537354,
6,6,1,1,1,1,1,20.9003533016546,0.517666339874268,20.8993537666173,-30.6926625967026,4.90477681159973,-30.6724119186401,
6.12,6.12,1,1,1,1,1,20.9013510833849,0.663558021187782,20.9019108058228,-30.6214499473572,5.00083900988102,-30.6012690067291,
6.16,6.16,1,1,1,1,1,20.9013510833849,0.602956861257553,20.9019108058228,-30.5933511257172,5.01397550106049,-30.5730628967285,
6.36,6.36,1,1,1,1,1,20.9013510833849,0.713998451828957,20.9019108058228,-30.4837399721146,5.12190759181976,-30.4634785652161,
6.52,6.52,1,1,1,1,1,20.9013510833849,0.686515122652054,20.9019108058228,-30.3848469257355,5.22236302495003,-30.364590883255,
6.72,6.72,1,1,1,1,1,20.9008307348481,0.874334946274757,20.9013815165886,-30.2742648124695,5.32318353652954,-30.2539336681366,
6.92,6.92,1,1,1,1,1,20.8990461718252,0.915909186005592,20.8995951654234,-30.1642513275147,5.39526864886284,-30.1439738273621,
7.12,7.12,1,1,1,1,1,20.8975155245831,0.857552513480186,20.8980770351539,-30.0506973266602,5.50260357558727,-30.03049492836,
7.32,7.32,1,1,1,1,1,20.8959294450226,0.998266041278839,20.8964319469937,-29.9443852901459,5.59636689722538,-29.9241614341736,
7.56,7.56,1,1,1,1,1,20.8900053395166,0.93342736363411,20.8905829433286,-29.81330037117,5.7315070182085,-29.7931623458862,
7.76,7.76,1,1,1,1,1,20.8772505418787,0.877222046256065,20.8778120524158,-29.7121918201447,5.79799599945545,-29.6920001506805,
8,8,1,1,1,1,1,20.8697332042551,0.744406133890152,20.8702839859437,-29.5922809839249,5.92301301658154,-29.5720946788788,
8.24,8.24,1,1,1,1,1,20.8503873251517,0.665849074721336,20.8510185730769,-29.4783461093903,6.02693930268288,-29.4580900669098,
8.44,8.44,1,1,1,1,1,20.8422298336581,0.594444572925568,20.8427931322761,-29.3769747018814,6.07703775167465,-29.3567132949829,
8.72,8.72,1,1,1,1,1,20.8171118408894,0.33319927752018,20.8173997660126,-29.259660243988,6.18678517639637,-29.2393934726715,
8.96,8.96,1,1,1,1,1,20.8033860836108,0.395262613892555,20.803949382164,-29.1526615619659,6.27391561865807,-29.1323947906494,
9.2,9.2,1,1,1,1,1,20.7894582665911,0.362889841198921,20.790026929539,-29.0440320968628,6.34860470890999,-29.0237760543823,
9.48,9.48,1,1,1,1,1,20.7734007756633,0.360840931534767,20.7739712267238,-28.934571146965,6.43667355179787,-28.9143419265747,
9.76,9.76,1,1,1,1,1,20.7679755610224,0.267187133431435,20.7685191899843,-28.8261616230011,6.51060864329338,-28.8058090209961,
10.08,10.08,1,1,1,1,1,20.7502586768228,0.219596549868584,20.75078978878,-28.7144100666046,6.58926442265511,-28.6944758892059,
10.4,10.4,1,1,1,1,1,20.7439107823023,0.222977250814438,20.7440914189452,-28.60480427742,6.6657729446888,-28.5845375061035,
10.72,10.72,1,1,1,1,1,20.7389415431833,0.225380063056946,20.7397498167139,-28.4962552785873,6.76855593919754,-28.4761440753937,
11.08,11.08,1,1,1,1,1,20.7327939202646,0.187447294592857,20.733391193347,-28.3939611911774,6.82471618056297,-28.3738017082214,
11.48,11.48,1,1,1,1,1,20.7197279863883,0.065043568611145,20.720237640623,-28.2848381996155,6.89476355910301,-28.2646787166595,
11.92,11.92,1,1,1,1,1,20.7147229844833,-0.0976398587226868,20.7151986640628,-28.1646376848221,6.96988105773926,-28.1444728374481,
12.48,12.48,1,1,1,1,1,20.7120568687847,-0.11214055120945,20.7127220911261,-28.0556273460388,6.99713453650475,-28.0355429649353,
13.52,13.52,1,1,1,1,1,20.7076097663418,-0.352570787072182,20.7081587596209,-27.9048550128937,6.98865652084351,-27.8845989704132,
14.76,14.76,1,1,1,1,1,20.7076097663418,-0.147493556141853,20.7081587596209,-27.8179568052292,6.88652843236923,-27.7977061271667,
15.52,15.52,1,1,1,1,1.25,20.7076097663418,-0.158846378326416,20.7081587596209,-27.8039449453354,6.78334683179855,-27.7837264537811,
16.12,16.12,1,1,1,1,1.25,20.7076097663418,-0.143731012940407,20.7083733363375,-27.8202152252197,6.67766034603119,-27.8000020980835,
16.44,16.44,1,1,1,1,1.25,20.7103545601696,-0.0959727913141251,20.7112289948068,-27.8415977954865,6.57617598772049,-27.8213310241699,
16.84,16.84,1,1,1,1,1.25,20.7097465928071,-0.143330544233322,20.7118745130957,-27.8837299346924,6.46583437919617,-27.8634738922119,
17.24,17.24,1,1,1,1,1.25,20.7133175069923,-0.0517722219228745,20.7138361019128,-27.9313284158707,6.34863451123238,-27.9110777378082,
17.48,17.48,1,1,1,1,1.25,20.7154596978755,0.099577009677887,20.716614870392,-27.9716688394547,6.23205788433552,-27.9514181613922,
17.84,17.84,1,1,1,1,1.25,20.7168079549089,0.175684690475464,20.716614870392,-28.0450648069382,6.1104454100132,-28.0248034000397,
18.12,18.12,1,1,1,1,1.25,20.7168079549089,0.170068815350533,20.716614870392,-28.1062567234039,6.00012801587582,-28.0859899520874,
18.4,18.4,1,1,1,1,1.25,20.7168079549089,0.130217522382736,20.716614870392,-28.1766057014465,5.86910955607891,-28.1563496589661,
18.64,18.64,1,1,1,1,1.25,20.7141811782749,0.151423737406731,20.716614870392,-28.2414132356644,5.7343877851963,-28.2211518287659,
18.88,18.88,1,1,1,1,1.25,20.7160354787306,0.221272930502892,20.716614870392,-28.3236014842987,5.59107847511768,-28.3033561706543,
19.08,19.08,1,1,1,1,1.25,20.7142509157077,0.232337042689323,20.716614870392,-28.3756846189499,5.48228807747364,-28.3554232120514,
19.28,19.28,1,1,1,1,1.25,20.7154346639253,0.247415155172348,20.716614870392,-28.4484314918518,5.37153482437134,-28.4280145168304,
19.56,19.56,1,1,1,1,1.25,20.7170243197644,0.308416783809662,20.716614870392,-28.5407531261444,5.25317825376987,-28.5204863548279,
19.76,19.76,1,1,1,1,1.25,20.7169009381526,0.382596626877785,20.716614870392,-28.6031520366669,5.12784793972969,-28.5828959941864,
19.96,19.96,1,1,1,1,1.25,20.7151163751296,0.329576432704926,20.716614870392,-28.6730933189392,5.02179488539696,-28.6528480052948,
20.2,20.2,1,1,1,1,1.25,20.7135249311513,0.302307307720184,20.716614870392,-28.7630063295364,4.90110293030739,-28.7428092956543,
20.44,20.44,1,1,1,1,1.25,20.7135249311513,0.419048592448235,20.716614870392,-28.8491749763489,4.77221012115479,-28.8289082050323,
20.6,20.6,1,1,1,1,1.25,20.7135249311513,0.3843754529953,20.716614870392,-28.9150178432465,4.67011481523514,-28.8947832584381,
20.84,20.84,1,1,1,1,1.25,20.7135249311513,0.401390716433525,20.7151843589484,-29.0033429861069,4.55128066241741,-28.9830708503723,
21.04,21.04,1,1,1,1,1.25,20.7135249311513,0.448822975158691,20.7133997959225,-29.0850269794464,4.44703884422779,-29.064781665802,
21.12,21.12,1,1,1,1,1.25,20.7135249311513,0.56820921599865,20.7126845402007,-29.1185384988785,4.33964431285858,-29.09827709198,
21.32,21.32,1,1,1,1,1.25,20.712117665521,0.655250623822212,20.7125522178921,-29.2064613103867,4.23021167516708,-29.1862535476685,
21.56,21.56,1,1,1,1,1.25,20.7092316086883,0.465726479887962,20.7089419646363,-29.31116938591,4.11724895238876,-29.2908918857574,
21.72,21.72,1,1,1,1,1.25,20.7081479962715,0.500865280628204,20.7087327523377,-29.3794798851013,4.004280641675,-29.3591916561127,
21.84,21.84,1,1,1,1,1.25,20.7081479962715,0.670645385980606,20.7087327523377,-29.4388800859451,3.89030650258064,-29.4185328483582,
22,22,1,1,1,1,1.25,20.7081479962715,0.648600980639458,20.7087327523377,-29.509454369545,3.7844467908144,-29.4892036914825,
22.24,22.24,1,1,1,1,1.25,20.7026172814119,0.613052397966385,20.7032020374688,-29.6190977096558,3.62292155623436,-29.5988202095032,
22.44,22.44,1,1,1,1,1.25,20.7010133204584,0.633029267191887,20.7015408560549,-29.7245192527771,3.51489000022411,-29.7042095661163,
22.6,22.6,1,1,1,1,1.25,20.7010133204584,0.644735991954803,20.7015408560549,-29.8004579544067,3.40160988271236,-29.7801911830902,
22.76,22.76,1,1,1,1,1.25,20.6945903240873,0.585420057177544,20.6951768682701,-29.883719086647,3.27960886061192,-29.8635649681091,
22.96,22.96,1,1,1,1,1.25,20.6926984727062,0.63236802816391,20.6931956099207,-29.9881267547607,3.14483493566513,-29.9679028987884,
23.16,23.16,1,1,1,1,1.25,20.6882281244524,0.586556270718575,20.6888128804854,-30.0937360525131,3.01924217492342,-30.0734853744507,
23.36,23.36,1,1,1,1,1.25,20.6828172149259,0.392245128750801,20.6834001828106,-30.1904886960983,2.9026260599494,-30.1702058315277,
23.56,23.56,1,1,1,1,1.25,20.6750030461782,0.316416844725609,20.6755967428857,-30.3007543087006,2.790766954422,-30.2805411815643,
23.72,23.72,1,1,1,1,1.25,20.6735743228763,0.432133674621582,20.6741698077207,-30.3865152597427,2.67949998378754,-30.3662538528442,
23.84,23.84,1,1,1,1,1.25,20.6725032274347,0.432822853326797,20.6730987122772,-30.4543483257294,2.5733033195138,-30.4340922832489,
24,24,1,1,1,1,1.25,20.6707508509192,0.381078571081162,20.6713445476195,-30.5414289236069,2.45207566767931,-30.5211246013641,
24.16,24.16,1,1,1,1,1.25,20.6658424085364,0.223098322749138,20.6664468340644,-30.6360250711441,2.32551097869873,-30.615838766098,
24.32,24.32,1,1,1,1,1.25,20.6591690726631,0.0116787850856781,20.6597752863193,-30.722644329071,2.21126228570938,-30.7023882865906,
24.48,24.48,1,1,1,1,1.25,20.6577403493612,-0.0761542469263077,20.658346563015,-30.8275401592255,2.10408382117748,-30.8072733879089,
24.68,24.68,1,1,1,1,1.25,20.6567425676309,-0.247769057750702,20.657348781283,-30.936963558197,1.99620965868235,-30.9166431427002,
24.8,24.8,1,1,1,1,1.25,20.6536151119925,-0.376766547560692,20.6542231137787,-31.0119259357452,1.88727434724569,-30.9917771816254,
24.96,24.96,1,1,1,1,1.25,20.6535936543209,-0.651217997074127,20.6542105968036,-31.1104863882065,1.77380964159966,-31.0901606082916,
25.16,25.16,1,1,1,1,1.25,20.6535936543209,-1.14533118903637,20.6542105968036,-31.2261539697647,1.65392085909843,-31.2059676647186,
25.36,25.36,1,1,1,1,1.25,20.6535936543209,-1.65508128702641,20.6542105968036,-31.3490849733353,1.52477473020554,-31.3288128376007,
25.52,25.52,1,1,1,1,1.25,20.6540943333253,-2.17530876398087,20.6546951825551,-31.4506709575653,1.41106713563204,-31.4303076267242,
25.72,25.72,1,1,1,1,1.25,20.6633890814147,-2.38897278904915,20.6639845662421,-31.574878692627,1.30084306001663,-31.5545797348023,
25.8,25.8,1,1,1,1,1.25,20.6697423403531,-2.48362310230732,20.6703449777483,-31.622262597084,1.25672044232488,-31.6020119190216,
25.88,25.88,1,1,1,1,1.25,20.6750495378001,-2.27185897529125,20.6756539633434,-31.6764217615128,1.1985806748271,-31.6561281681061,
26.08,26.08,1,1,1,1,1.25,20.6949139773009,-1.94855034351349,20.6955005214843,-31.7946320772171,1.08320051804185,-31.7744028568268,
26.24,26.24,1,1,1,1,1.25,20.7061864074578,-1.85055658221245,20.7067747397993,-31.8976986408234,0.991279073059559,-31.8774318695068,
26.4,26.4,1,1,1,1,1.25,20.717929118251,-1.7125066369772,20.7185120861941,-31.9915491342545,0.885771401226521,-31.971287727356,
26.6,26.6,1,1,1,1,1.25,20.7319141557283,-1.50354579091072,20.7324917592768,-32.1111971139908,0.748409610241652,-32.0910000801086,
26.76,26.76,1,1,1,1,1.25,20.7459975408672,-1.3978686183691,20.7465894495537,-32.2113132476807,0.658432114869356,-32.1911644935608,
26.92,26.92,1,1,1,1,1.25,20.7594264670218,-1.14813446998596,20.7599987061982,-32.3104423284531,0.533255934715271,-32.2901701927185,
27.08,27.08,1,1,1,1,1.25,20.7655436915723,-1.06736086308956,20.7662607700427,-32.4242269992828,0.396225601434708,-32.403906583786,
27.28,27.28,1,1,1,1,1.25,20.7833070673938,-0.777766108512878,20.783884671028,-32.5517284870148,0.270892679691315,-32.5313758850098,
27.4,27.4,1,1,1,1,1.25,20.784868113004,-0.511119142174721,20.7850272920436,-32.6395815610886,0.170421320945024,-32.6193308830261,
27.56,27.56,1,1,1,1,1.25,20.7959635173701,0.113062560558319,20.7956810260199,-32.7415269613266,0.0398610718548298,-32.7212119102478,
27.72,27.72,1,1,1,1,1.25,20.7983077679944,0.49264170229435,20.7988603377034,-32.8514975309372,-0.0757511705160141,-32.8313112258911,
27.88,27.88,1,1,1,1,1.25,20.7996596013064,0.852150842547417,20.8001889252066,-32.9743373394012,-0.193333718925714,-32.9540705680847,
28.04,28.04,1,1,1,1,1.25,20.7996596013064,1.0217446833849,20.8001889252066,-33.0760252475739,-0.300307292491198,-33.0557906627655,
28.16,28.16,1,1,1,1,1.25,20.7988817607102,1.19637697935104,20.7995326780819,-33.1695055961609,-0.42979009449482,-33.1492280960083,
28.32,28.32,1,1,1,1,1.25,20.7974530374083,1.33048743009567,20.7981039547775,-33.281906247139,-0.543474685400724,-33.2616662979126,
28.44,28.44,1,1,1,1,1.25,20.7963819419667,1.34000554680824,20.7970328593341,-33.3591538667679,-0.651068054139614,-33.3389246463776,
28.56,28.56,1,1,1,1,1.25,20.7939304029842,1.5212781727314,20.795922424826,-33.4596562385559,-0.764600280672312,-33.4394001960754,
28.72,28.72,1,1,1,1,1.25,20.7901002086003,1.49620696902275,20.7906474138777,-33.5696482658386,-0.903730932623148,-33.5496175289154,
28.88,28.88,1,1,1,1,1.25,20.7839168228956,1.57627277076244,20.7844801214164,-33.6865228414536,-1.02871991693974,-33.6662185192108,
29,29,1,1,1,1,1.25,20.7765049854908,1.45526602864265,20.777079012835,-33.7762856483459,-1.13884815946221,-33.7560403347015,
29.16,29.16,1,1,1,1,1.25,20.7675750178189,1.59130431711674,20.7681919604916,-33.897500038147,-1.25365182757378,-33.8772761821747,
29.32,29.32,1,1,1,1,1.25,20.7526297495366,2.00849957764149,20.7532127175376,-34.0127331018448,-1.37856667861342,-33.9925146102905,
29.44,29.44,1,1,1,1,1.25,20.7438392567302,2.34829261898994,20.7444383179703,-34.1085577011108,-1.48848136886954,-34.0883982181549,
29.6,29.6,1,1,1,1,1.25,20.7253409556558,2.46881507337093,20.7259239236113,-34.2280822992325,-1.60288326442242,-34.207820892334,
29.76,29.76,1,1,1,1,1.25,20.7054175075581,2.61139124631882,20.7059951110625,-34.3573433160782,-1.71724185347557,-34.3370389938354,
29.88,29.88,1,1,1,1,1.25,20.6870282829811,2.7256365865469,20.6876237678479,-34.4511616230011,-1.82712879031897,-34.4309163093567,
30.04,30.04,1,1,1,1,1.5,20.665418619522,1.92104838788509,20.6662000708404,-34.5624679327011,-1.93807855248451,-34.5422601699829,
30.2,30.2,1,1,1,1,1.5,20.6472654293328,1.6363337635994,20.6478609141333,-34.69014108181,-2.0887328311801,-34.6699118614197,
30.36,30.36,1,1,1,1,1.5,20.6308252765944,1.42485834658146,20.6314243376461,-34.7977244853973,-2.18727216124535,-34.7774577140808,
30.48,30.48,1,1,1,1,1.5,20.610435124139,1.16733834147453,20.6110395495746,-34.8852288722992,-2.28985324501991,-34.8649621009827,
30.64,30.64,1,1,1,1,1.5,20.5934907161176,0.973735004663467,20.5940790482713,-34.9911332130432,-2.39706840366125,-34.9708771705627,
30.8,30.8,1,1,1,1,1.5,20.5732293096919,0.901874154806137,20.5738694978516,-35.1070582866669,-2.50365436077118,-35.0867593288422,
30.96,30.96,1,1,1,1,1.5,20.5591888398962,0.82455575466156,20.5598022059429,-35.2139711380005,-2.62136291712523,-35.1936078071594,
