"Total Time (s)","Cycle Elapsed Time (s)","Total Cycles","Elapsed Cycles","Step","Total Cycle Count(Linear Waveform)","Total Cycle Count(Rotary Waveform)","Position(Linear:Position) (mm)","Load(Linear:Load) (N)","Displacement(Linear:Digital Position) (mm)","Rotation(Rotary:Rotation) (deg)","Torque(Rotary:Torque) (N·m)","Rotary Displacement(Rotary:Digital Rotation) (deg)",
0,0,1,1,1,1,1,-7.23937628662664,0.123977661132813,-7.2439190665954,-31.908985376358,-0.00708317384123802,-31.88880443573,
0.16,0.16,1,1,1,1,1,-7.23937628662664,0.0809784978628159,-7.24370583098333,-31.894206404686,0.0960055738687515,-31.8739986419678,
0.28,0.28,1,1,1,1,1,-7.23937628662664,-0.0420399010181427,-7.24397360484419,-31.8294900655746,0.242820475250483,-31.8092501163483,
0.36,0.36,1,1,1,1,1,-7.23937628662664,-0.399984419345856,-7.24415197173981,-31.7642426490784,0.386202987283468,-31.7439544200897,
0.44,0.44,1,1,1,1,1,-7.23937628662664,-0.855391845107079,-7.24405094186911,-31.6889101266861,0.552362762391567,-31.6686487197876,
0.52,0.52,1,1,1,1,1,-7.23930833733318,-1.16338022053242,-7.24387212793866,-31.6038304567337,0.713562779128551,-31.5835797786713,
0.6,0.6,1,1,1,1,1,-7.23869098223933,-1.40679068863392,-7.24326103133134,-31.5182250738144,0.851721782237291,-31.497974395752,
0.68,0.68,1,1,1,1,1,-7.23219869547027,-1.4957319945097,-7.23677455600419,-31.4300554990768,1.00074987858534,-31.4098048210144,
0.76,0.76,1,1,1,1,1,-7.22795946422114,-1.61661766469479,-7.23253845399179,-31.3575875759125,1.1142217554152,-31.3374066352844,
0.8,0.8,1,1,1,1,1,-7.22391469312106,-1.65687873959541,-7.22849412991979,-31.3120758533478,1.20402527973056,-31.2917983531952,
0.84,0.84,1,1,1,1,1,-7.22192851739188,-1.63497403264046,-7.22650750715247,-31.2722396850586,1.23931355774403,-31.2519299983978,
0.96,0.96,1,1,1,1,1,-7.21288500287435,-1.25759281218052,-7.217466227794,-31.1469376087189,1.31603991612792,-31.1266922950745,
1.04,1.04,1,1,1,1,1,-7.20780713429281,-1.19131058454514,-7.21238970030847,-31.0459899902344,1.47932479158044,-31.02574467659,
1.16,1.16,1,1,1,1,1,-7.18750638880244,-0.505782663822174,-7.19209029588875,-30.9314489364624,1.61590408533812,-30.9114074707031,
1.24,1.24,1,1,1,1,1,-7.17379225442929,0.147279351949692,-7.17838063184101,-30.8486276865005,1.71769615262747,-30.8284735679626,
1.32,1.32,1,1,1,1,1,-7.1667147990738,0.446178019046783,-7.17130362350855,-30.7563972473145,1.85562036931515,-30.7360553741455,
1.4,1.4,1,1,1,1,1,-7.16222701646176,0.841738656163216,-7.16681807606316,-30.6744933128357,1.97689048945904,-30.654194355011,
1.48,1.48,1,1,1,1,1,-7.15963287337006,1.27577222883701,-7.16422393296713,-30.5739104747772,2.08777245134115,-30.5536544322968,
1.6,1.6,1,1,1,1,1,-7.15622020951307,1.80619768798351,-7.1608170805572,-30.4295164346695,2.23540067672729,-30.4094481468201,
1.68,1.68,1,1,1,1,1,-7.15479416842009,1.80684030056,-7.15941026195937,-30.3435570001602,2.35070660710335,-30.3232955932617,
1.72,1.72,1,1,1,1,1,-7.15431673522658,1.75205059349537,-7.15893774614815,-30.3036618232727,2.38818041980267,-30.2834808826447,
1.8,1.8,1,1,1,1,1,-7.15449510212191,1.64978206157684,-7.15929492697422,-30.2305662631989,2.46985368430614,-30.2102565765381,
1.92,1.92,1,1,1,1,1,-7.15476287598232,1.56532041728497,-7.15917288646669,-30.1170498132706,2.57560480386019,-30.0970780849457,
2.04,2.04,1,1,1,1,1,-7.15436948533598,1.610042527318,-7.15890511260584,-30.0039088726044,2.73264609277248,-29.9836850166321,
2.12,2.12,1,1,1,1,1,-7.15503288501685,1.66507437825203,-7.15962170943213,-29.9157178401947,2.84038875252008,-29.8954832553864,
2.2,2.2,1,1,1,1,1,-7.15516386622069,1.74668617546558,-7.15975403174066,-29.8311477899551,2.97152400016785,-29.8108971118927,
2.28,2.28,1,1,1,1,1,-7.15602306715508,1.66481360793114,-7.16061591488544,-29.7315841913223,3.10178138315678,-29.7113335132599,
2.36,2.36,1,1,1,1,1,-7.15679733147264,1.66247598826885,-7.16138928513464,-29.6430444717407,3.24964262545109,-29.622745513916,
2.44,2.44,1,1,1,1,1,-7.15887827858481,1.5424657613039,-7.16346710300649,-29.5504975318909,3.3545907586813,-29.5304560661316,
2.52,2.52,1,1,1,1,1,-7.16324714993329,1.32672488689423,-7.16783865657122,-29.4712543487549,3.4589808434248,-29.4509875774384,
2.6,2.6,1,1,1,1,1,-7.16498879761299,1.25519931316376,-7.16957672797521,-29.3794101476669,3.57959717512131,-29.3591380119324,
2.72,2.72,1,1,1,1,1,-7.16638533440749,1.16464681923389,-7.17097505291134,-29.2610549926758,3.71380113065243,-29.2409062385559,
2.8,2.8,1,1,1,1,1,-7.16746134723219,1.16017647087574,-7.17205017166818,-29.1741782426834,3.82395647466183,-29.1539168357849,
2.88,2.88,1,1,1,1,1,-7.16904206237475,1.08376145362854,-7.17363222791786,-29.0913677215576,3.94594557583332,-29.0711545944214,
2.96,2.96,1,1,1,1,1,-7.17390624830976,0.913571566343308,-7.17849641386097,-29.0003764629364,4.0552631020546,-28.9799165725708,
3.08,3.08,1,1,1,1,1,-7.18224121262906,0.595366582274437,-7.18683674261207,-28.8805890083313,4.1772224009037,-28.8604080677032,
3.16,3.16,1,1,1,1,1,-7.18793777740894,0.430047512054443,-7.19251766118253,-28.7955951690674,4.28095050156116,-28.7753713130951,
3.28,3.28,1,1,1,1,1,-7.19549400706241,0.115856528282166,-7.20011233584365,-28.6657977104187,4.43631410598755,-28.645498752594,
3.4,3.4,1,1,1,1,1,-7.19973279127671,-0.00568106770515442,-7.2043166983834,-28.5503929853439,4.56516742706299,-28.5301315784454,
3.52,3.52,1,1,1,1,1,-7.20260901334323,0.0100210309028625,-7.20719113231541,-28.432981967926,4.71710190176964,-28.4128975868225,
3.64,3.64,1,1,1,1,1,-7.2055071401162,-0.0169593840837479,-7.21009060019769,-28.3197337388992,4.85886931419373,-28.2994616031647,
3.72,3.72,1,1,1,1,1,-7.20683483354759,-0.0115390866994858,-7.21141471735268,-28.2382053136826,4.96328845620155,-28.2180190086365,
3.84,3.84,1,1,1,1,1,-7.21000118121579,-0.0153668224811554,-7.21458464130477,-28.1244152784348,5.06038665771484,-28.1040573120117,
3.96,3.96,1,1,1,1,1,-7.21194533567139,0.121425837278366,-7.21653281907704,-27.9968816041946,5.19438050687313,-27.9766094684601,
4.08,4.08,1,1,1,1,1,-7.21461502764859,0.187056139111519,-7.21921234582486,-27.8752487897873,5.3304310888052,-27.8549122810364,
4.2,4.2,1,1,1,1,1,-7.21995038828955,0.367565080523491,-7.22453474246476,-27.7637279033661,5.43743185698986,-27.7434611320496,
4.28,4.28,1,1,1,1,1,-7.22325978710187,0.545652583241463,-7.22781776622786,-27.6829236745834,5.55074103176594,-27.6626622676849,
4.4,4.4,1,1,1,1,1,-7.22969842969189,0.726021826267242,-7.23417504849025,-27.5577396154404,5.67168556153774,-27.5376176834106,
4.52,4.52,1,1,1,1,1,-7.23685590428112,0.812895596027374,-7.24140538976807,-27.4391108751297,5.79223521053791,-27.4188387393951,
4.64,4.64,1,1,1,1,1,-7.24166555196744,0.838758423924446,-7.24621816670618,-27.3153644800186,5.90858496725559,-27.2950708866119,
4.76,4.76,1,1,1,1,1,-7.24527044079934,0.912360846996307,-7.24984898356401,-27.1902716159821,6.03076666593552,-27.1700155735016,
4.88,4.88,1,1,1,1,1,-7.24710417765307,1.10710971057415,-7.25167825007253,-27.0749258995056,6.12573586404324,-27.0545518398285,
5,5,1,1,1,1,1,-7.25771633737287,0.992268323898315,-7.26228683353142,-26.9515550136566,6.2620997428894,-26.931277513504,
5.12,5.12,1,1,1,1,1,-7.26760877102381,1.05137005448341,-7.27217971423366,-26.8382424116135,6.37365058064461,-26.8180239200592,
5.2,5.2,1,1,1,1,1,-7.26944876636509,1.26787461340427,-7.27401970957801,-26.7463499307632,6.51404336094856,-26.7260026931763,
5.32,5.32,1,1,1,1,1,-7.27784765666442,1.39474868774414,-7.28241234140377,-26.6231828927994,6.63180276751518,-26.6026854515076,
5.44,5.44,1,1,1,1,1,-7.28807983678264,1.33896246552467,-7.29264720374801,-26.5152454376221,6.71865865588188,-26.4949679374695,
5.48,5.48,1,1,1,1,1,-7.29385865597039,1.21969729661942,-7.29842378777126,-26.4957189559937,6.69307559728622,-26.4755058288574,
5.6,5.6,1,1,1,1,1,-7.30432731751125,1.04674138128757,-7.30888887305095,-26.4517629146576,6.60786256194115,-26.4316999912262,
5.68,5.68,1,1,2,1,1,-7.30589328050457,0.902572646737099,-7.31045617715137,-26.4484798908234,6.56412094831467,-26.4277732372284,
5.68,0,1,1,2,1,1,-7.30589328050457,0.902572646737099,-7.31045617715137,-26.4484798908234,6.56412094831467,-26.4277732372284,
5.72,0.04,1,1,2,1,1,-7.30658797262322,0.891434028744698,-7.31115221037565,-26.4296132326126,6.54651075601578,-26.4093625545502,
5.76,0.0800000000000001,1,1,2,1,1,-7.30739129420444,0.895783305168152,-7.3119555319582,-26.4353585243225,6.48654103279114,-26.415091753006,
5.8,0.12,1,1,2,1,1,-7.30830548042235,0.892616808414459,-7.31286882410799,-26.4393335580826,6.43965005874634,-26.419061422348,
5.84,0.16,1,1,2,1,1,-7.30997202625138,0.848257914185524,-7.31452598220845,-26.4553409814835,6.38111159205437,-26.435079574585,
5.88,0.2,1,1,2,1,1,-7.3112192534142,0.742180272936821,-7.31577365640818,-26.4588922262192,6.32007047533989,-26.4386415481567,
5.92,0.24,1,1,2,1,1,-7.31300471050679,0.63491053879261,-7.31755911350374,-26.4763051271439,6.26881420612335,-26.4560544490814,
5.96,0.28,1,1,2,1,1,-7.31479016759938,0.579394400119781,-7.31934412356448,-26.4994418621063,6.1682652682066,-26.4791107177734,
6,0.32,1,1,2,1,1,-7.31657517765714,0.56317076086998,-7.32112958066004,-26.5213876962662,6.07251971960068,-26.5011262893677,
6.04,0.36,1,1,2,1,1,-7.31954527703699,0.556362792849541,-7.32410727963689,-26.5427595376968,5.98924979567528,-26.5224981307983,
6.08,0.4,1,1,2,1,1,-7.32210633955162,0.318493694067001,-7.32666744808613,-26.5688037872314,5.9088833630085,-26.5486979484558,
6.12,0.44,1,1,2,1,1,-7.32442734436502,0.292854383587837,-7.3289884529034,-26.6043269634247,5.81048615276814,-26.5840923786163,
6.16,0.48,1,1,2,1,1,-7.32674834917841,0.295378267765045,-7.33130901068584,-26.6409981250763,5.70094212889671,-26.6207313537598,
6.2,0.52,1,1,2,1,1,-7.32884315437017,0.220248475670815,-7.33340202774178,-26.6813009977341,5.59299997985363,-26.6610610485077,
6.24,0.560000000000001,1,1,2,1,1,-7.32995358887642,0.150324776768684,-7.33451290928471,-26.7211318016052,5.47577925026417,-26.7009294033051,
6.28,0.600000000000001,1,1,2,1,1,-7.33184946357088,0.175293534994125,-7.33640744287785,-26.7622178792953,5.37498444318771,-26.7417848110199,
6.32,0.640000000000001,1,1,2,1,1,-7.33337474639509,0.0680610537528992,-7.33793138460012,-26.8092370033264,5.25195747613907,-26.7890453338623,
6.36,0.680000000000001,1,1,2,1,1,-7.33409402542913,0.147735700011253,-7.33865066363536,-26.856529712677,5.13560436666012,-26.8363058567047,
6.4,0.720000000000001,1,1,2,1,1,-7.33462957314994,0.218106433749199,-7.33918621135707,-26.900839805603,5.0323024392128,-26.8805193901062,
6.44,0.760000000000001,1,1,2,1,1,-7.33516512087076,0.190753489732742,-7.33972175907877,-26.9477355480194,4.92037907242775,-26.9275331497192,
6.48,0.800000000000001,1,1,2,1,1,-7.33596039582511,0.206762924790382,-7.34051703403446,-26.9889235496521,4.83800806105137,-26.9686675071716,
6.52,0.840000000000001,1,1,2,1,1,-7.33625365067057,0.196695327758789,-7.3408102888804,-27.0357120037079,4.73930574953556,-27.0154881477356,
6.56,0.880000000000001,1,1,2,1,1,-7.33643246460072,0.224178656935692,-7.34098865577602,-27.083643078804,4.64386977255344,-27.0633065700531,
6.6,0.920000000000001,1,1,2,1,1,-7.3367315308989,0.268286094069481,-7.34128235765679,-27.1225833892822,4.56526130437851,-27.102370262146,
6.64,0.960000000000001,1,1,2,1,1,-7.33756390974377,0.270018354058266,-7.3421156305727,-27.1777725219727,4.4577531516552,-27.1575272083282,
6.68,1,1,1,2,1,1,-7.33813522025061,0.252397730946541,-7.34269141142875,-27.2227263450623,4.37994934618473,-27.2023415565491,
6.72,1.04,1,1,2,1,1,-7.33822418018086,0.372091308236122,-7.34278081839398,-27.2648906707764,4.29129041731358,-27.2449886798859,
6.76,1.08,1,1,2,1,1,-7.33831358714594,0.341068953275681,-7.3428702253592,-27.3122209310532,4.21499088406563,-27.2918736934662,
6.8,1.12,1,1,2,1,1,-7.33879996103596,0.233119353652,-7.34335659925003,-27.3597013950348,4.13418561220169,-27.3394346237183,
6.84,1.16,1,1,2,1,1,-7.3395491914033,0.356268137693405,-7.34410806479276,-27.4040919542313,4.06235232949257,-27.3838305473328,
6.88,1.2,1,1,2,1,1,-7.33991575996012,0.205999240279198,-7.34447016300192,-27.4503493309021,3.97836789488792,-27.4300932884216,
6.92,1.24,1,1,2,1,1,-7.34006283441767,0.244295224547386,-7.34461947263385,-27.4907433986664,3.90999317169189,-27.4704873561859,
6.96,1.28,1,1,2,1,1,-7.34015179434792,0.282637774944305,-7.34470887959907,-27.5310784578323,3.824457898736,-27.5108170509338,
7,1.32,1,1,2,1,1,-7.340241201313,0.290386378765106,-7.3447982865643,-27.5777703523636,3.73882725834847,-27.5575089454651,
7.04,1.36,1,1,2,1,1,-7.34033373752185,0.309385359287262,-7.344889034634,-27.6180195808411,3.67742478847504,-27.5977313518524,
7.08,1.4,1,1,2,1,1,-7.34059793510365,0.228043645620346,-7.34515323221625,-27.6611977815628,3.59506830573082,-27.6409041881561,
7.12,1.44,1,1,2,1,1,-7.34086570896406,0.164294615387917,-7.3454210060771,-27.7064198255539,3.51278968155384,-27.6861906051636,
7.16,1.48,1,1,2,1,1,-7.34113348282447,0.197421759366989,-7.34568922697278,-27.7519690990448,3.41717153787613,-27.7315628528595,
7.2,1.52,1,1,2,1,1,-7.34137219942122,0.189226120710373,-7.3459257083958,-27.7942514419556,3.35551388561726,-27.7741348743439,
7.24,1.56,1,1,2,1,1,-7.34137219942122,0.023944303393364,-7.3459257083958,-27.8420805931091,3.26835438609123,-27.8218674659729,
7.28,1.6,1,1,2,1,1,-7.34137219942122,0.0277440994977951,-7.3459257083958,-27.8837406635284,3.20189259946346,-27.863495349884,
7.32,1.64,1,1,2,1,1,-7.34137219942122,-0.032307580113411,-7.3459257083958,-27.9299658536911,3.11416145414114,-27.9097259044647,
7.36,1.68,1,1,2,1,1,-7.34137219942122,-0.151712447404861,-7.3459257083958,-27.9741954803467,3.05634848773479,-27.9539823532104,
7.4,1.72,1,1,2,1,1,-7.34137219942122,-0.204890966415405,-7.3459257083958,-28.0200934410095,2.98293493688107,-27.9998588562012,
7.44,1.76,1,1,2,1,1,-7.34151748573947,-0.306386500597,-7.34608619389838,-28.0655300617218,2.91136559098959,-28.0451238155365,
7.48,1.8,1,1,2,1,1,-7.34184248005753,-0.391602516174316,-7.34635754403784,-28.1091856956482,2.85817198455334,-28.0889618396759,
7.52,1.84,1,1,2,1,1,-7.34175352012727,-0.438056886196136,-7.34617917714221,-28.1487643718719,2.79298275709152,-28.1285405158997,
7.56,1.88,1,1,2,1,1,-7.3416641131622,-0.500325113534927,-7.34601779756998,-28.1879675388336,2.72940266877413,-28.1676042079926,
7.6,1.92,1,1,2,1,1,-7.34157470619712,-0.487063080072403,-7.34596325932119,-28.2316929101944,2.66837347298861,-28.2114636898041,
7.64,1.96,1,1,2,1,1,-7.34151927387877,-0.596558675169945,-7.34613894400786,-28.2740503549576,2.58450545370579,-28.253778219223,
7.68,2,1,1,2,1,1,-7.34151927387877,-0.583920627832413,-7.34631731090349,-28.3189880847931,2.50379797071218,-28.2987213134766,
7.72,2.04,1,1,2,1,1,-7.34151927387877,-0.684140250086784,-7.34649612483394,-28.3597040176392,2.43912469595671,-28.3394372463226,
7.76,2.08,1,1,2,1,1,-7.34151927387877,-0.821836292743683,-7.34660475429669,-28.4029251337051,2.36778277903795,-28.3827817440033,
7.8,2.12,1,1,2,1,1,-7.34151927387877,-0.989837571978569,-7.34651579436629,-28.4461677074432,2.31034383177757,-28.4258687496185,
7.84,2.16,1,1,2,1,1,-7.34151927387877,-1.06140039861202,-7.34642638740106,-28.4943509101868,2.21020635217428,-28.4741592407227,
7.88,2.2,1,1,2,1,1,-7.34151927387877,-1.19341537356377,-7.34633698043584,-28.5432958602905,2.15201936662197,-28.5230505466461,
7.92,2.24,1,1,2,1,1,-7.34151927387877,-1.28465704619884,-7.3462216454507,-28.5841566324234,2.08276268094778,-28.5639703273773,
7.96,2.28,1,1,2,1,1,-7.34151927387877,-1.41248106956482,-7.34595387158985,-28.6328119039536,2.00534965842962,-28.6125504970551,
8,2.32,1,1,2,1,1,-7.34142718470474,-1.6288086771965,-7.34568609772899,-28.6717414855957,1.95723865181208,-28.651442527771,
8.04,2.36,1,1,2,1,1,-7.34047812977045,-1.67106278240681,-7.34503700316145,-28.7214750051498,1.88735984265804,-28.7011814117432,
8.08,2.4,1,1,2,1,1,-7.33923716109518,-1.70058570802212,-7.34378709378759,-28.7613862752914,1.83849316090345,-28.7411570549011,
8.12,2.44,1,1,2,1,1,-7.33812538548445,-1.89885497093201,-7.34268112962775,-28.8111412525177,1.74966380000114,-28.7908959388733,
8.16,2.48,1,1,2,1,1,-7.33735335634101,-1.96143053472042,-7.34185992665215,-28.8523560762405,1.71442162245512,-28.832094669342,
8.2,2.52,1,1,2,1,1,-7.33619330096914,-2.14495696127415,-7.34090729543767,-28.8940805196762,1.65714342147112,-28.8738298416138,
8.24,2.56,1,1,2,1,1,-7.33544988205453,-2.24385410547256,-7.34019293378551,-28.9353865385056,1.60776004195213,-28.9151251316071,
8.28,2.6,1,1,2,1,1,-7.33446819357798,-2.37817876040936,-7.33896001173505,-28.9797985553741,1.54284900054336,-28.9595317840576,
8.32,2.64,1,1,2,1,1,-7.33072695912434,-2.50297598540783,-7.33528449139461,-29.0218877792358,1.4949400909245,-29.0017282962799,
8.36,2.68,1,1,2,1,1,-7.32247067293431,-2.43832357227802,-7.32702999333012,-29.0618848800659,1.46109471097589,-29.0417039394379,
8.4,2.72,1,1,2,1,1,-7.31696946237313,-2.51417979598045,-7.32152788869012,-29.1057121753693,1.40673574060202,-29.0854346752167,
8.44,2.76,1,1,2,1,1,-7.3157468221257,-2.72470526397228,-7.32030748361479,-29.1502100229263,1.33996307849884,-29.1299700737,
8.48,2.8,1,1,2,1,1,-7.31072349179285,-2.74829566478729,-7.31528370623874,-29.1903895139694,1.27258179709315,-29.1700959205627,
8.52,2.84,1,1,2,1,1,-7.30516193153024,-2.73990444839001,-7.30972169893203,-29.2422151565552,1.22740073129535,-29.2219054698944,
8.56,2.88,1,1,2,1,1,-7.29853374617426,-2.6352982968092,-7.30308323176401,-29.2795622348785,1.19301108643413,-29.2594027519226,
8.6,2.92,1,1,2,1,1,-7.29308439165283,-2.55709514021873,-7.29767455740267,-29.3262755870819,1.12591804936528,-29.3060410022736,
8.64,2.96,1,1,2,1,1,-7.28379724315546,-2.27571465075016,-7.28836908046195,-29.3638372421265,1.0847607627511,-29.3435704708099,
8.68,3,1,1,2,1,1,-7.27816773359939,-2.15152278542519,-7.28273822979202,-29.4083082675934,1.02811753749847,-29.3881058692932,
8.72,3.04,1,1,2,1,1,-7.27459369017044,-2.168333157897,-7.27916239821781,-29.4496035575867,0.983075238764286,-29.4293689727783,
8.76,3.08,1,1,2,1,1,-7.27311802821185,-2.25462019443512,-7.27768763032641,-29.4900619983673,0.921224802732468,-29.4698166847229,
8.8,3.12,1,1,2,1,1,-7.26681036682567,-2.1552387624979,-7.27137236933767,-29.5336961746216,0.85842115804553,-29.5134294033051,
8.84,3.16,1,1,2,1,1,-7.26292965750651,-2.17491760849953,-7.26750015367374,-29.577003121376,0.808084104210138,-29.5567417144775,
8.88,3.2,1,1,2,1,1,-7.2526415980351,-1.85004435479641,-7.25721477639415,-29.6174293756485,0.768031645566225,-29.5972216129303,
8.92,3.24,1,1,2,1,1,-7.24488017939678,-1.72906555235386,-7.24945380477771,-29.6633541584015,0.68947384133935,-29.643087387085,
8.96,3.28,1,1,2,1,1,-7.24015233908351,-1.83089636266232,-7.24472685852622,-29.7082167863846,0.638675037771463,-29.6879017353058,
9,3.32,1,1,2,1,1,-7.23387641716993,-1.81470066308975,-7.23844423107979,-29.745209813118,0.58640418574214,-29.7250020503998,
9.04,3.36,1,1,2,1,1,-7.22687182849098,-1.67935155332088,-7.23144634791155,-29.7953724861145,0.538466405123472,-29.7751486301422,
9.08,3.4,1,1,2,1,1,-7.22073046405985,-1.7155148088932,-7.22530811271397,-29.834355711937,0.5022207275033,-29.8139548301697,
9.12,3.44,1,1,2,1,1,-7.21158368449765,-1.49469822645187,-7.2161590979624,-29.872732758522,0.453328713774681,-29.8524284362793,
9.16,3.48,1,1,2,1,1,-7.20385981678466,-1.43061392009258,-7.20845266459475,-29.9151009321213,0.389343220740557,-29.8948287963867,
9.2,3.52,1,1,2,1,1,-7.1969361414091,-1.30303204059601,-7.20151244891909,-29.9584132432938,0.352938938885927,-29.9381625652313,
9.24,3.56,1,1,2,1,1,-7.18910945568627,-1.31074339151382,-7.19368173986977,-29.999150633812,0.311193335801363,-29.9787926673889,
9.28,3.6,1,1,2,1,1,-7.18201367190294,-1.16275623440742,-7.18658595607462,-30.0369322299957,0.259976927191019,-30.0166869163513,
9.32,3.64,1,1,2,1,1,-7.17503679938316,-1.13200396299362,-7.17967792690643,-30.0700521469116,0.257689319550991,-30.0498604774475,
9.36,3.68,1,1,2,1,1,-7.16704918112319,-0.946167856454849,-7.17161699492166,-30.105237364769,0.208665430545807,-30.0849866867065,
