"Total Time (s)","Cycle Elapsed Time (s)","Total Cycles","Elapsed Cycles","Step","Total Cycle Count(Linear Waveform)","Total Cycle Count(Rotary Waveform)","Position(Linear:Position) (mm)","Load(Linear:Load) (N)","Displacement(Linear:Digital Position) (mm)","Rotation(Rotary:Rotation) (deg)","Torque(Rotary:Torque) (N·m)","Rotary Displacement(Rotary:Digital Rotation) (deg)",
0,0,1,1,1,1,1,-5.03587457708206,-0.0336579978466034,-5.04092384383632,-32.6514208316803,0.0071842223405838,-32.6311755180359,
0.04,0.04,1,1,1,1,1,-5.03578561715181,-0.0230036675930023,-5.04085902378653,-32.6514208316803,0.00602966174483299,-32.6311755180359,
0.08,0.08,1,1,1,1,1,-5.03569621018673,-0.0902730971574783,-5.04077006385613,-32.6514208316803,0.0165907666087151,-32.6311755180359,
0.32,0.32,1,1,1,1,1,-5.03516066246592,-0.290907919406891,-5.04023451613442,-32.5837647914886,0.183990970253944,-32.5635302066803,
0.44,0.44,1,1,1,1,1,-5.03489288860551,-0.593597069382668,-5.04012678074133,-32.5335109233856,0.298704020678997,-32.513233423233,
0.52,0.52,1,1,1,1,1,-5.03502699905313,-0.964906066656113,-5.04026402043295,-32.4719220399857,0.444096699357033,-32.4516499042511,
0.6,0.6,1,1,1,1,1,-5.03520581298328,-1.49521045386791,-5.04026402043295,-32.3910695314407,0.619217846542597,-32.3708081245422,
0.68,0.68,1,1,1,1,1,-5.03505337410783,-1.83542259037495,-5.04002262162684,-32.3184621334076,0.762872118502855,-32.2982060909271,
0.76,0.76,1,1,1,1,1,-5.03451782638701,-2.22195871174335,-5.03966588783559,-32.2348201274872,0.922000408172607,-32.2145962715149,
0.84,0.84,1,1,1,1,1,-5.03224197209098,-2.55589373409748,-5.0372451942521,-32.1485817432404,1.09457848593593,-32.1281969547272,
0.92,0.92,1,1,1,1,1,-5.0241908748858,-2.60558910667896,-5.02922941278476,-32.066758275032,1.22122680768371,-32.0465183258057,
0.96,0.96,1,1,1,1,1,-5.02092796769532,-2.75426544249058,-5.02594281274306,-32.0199376344681,1.33457174524665,-31.9996869564056,
1.04,1.04,1,1,1,1,1,-5.01106503834286,-2.72873789072037,-5.01608435372242,-31.9295740127563,1.47702004760504,-31.9092965126038,
1.08,1.08,1,1,1,1,1,-5.00536802652816,-2.88745388388634,-5.0103886830027,-31.8855428695679,1.57501995563507,-31.8653082847595,
1.12,1.12,1,1,1,1,1,-4.9982346918195,-2.70572490990162,-5.0032562423518,-31.8366408348084,1.64445880800486,-31.8162775039673,
1.2,1.2,1,1,1,1,1,-4.9830632239156,-2.69356183707714,-4.98799939077082,-31.7423987388611,1.79298836737871,-31.7220997810364,
1.24,1.24,1,1,1,1,1,-4.97574347568475,-2.64531932771206,-4.98059068259738,-31.689977645874,1.89860798418522,-31.6697108745575,
1.32,1.32,1,1,1,1,1,-4.95890948526524,-2.39805318415165,-4.96394087049818,-31.5933644771576,2.01121866703033,-31.5727758407593,
1.4,1.4,1,1,1,1,1,-4.94168612751282,-2.19042412936687,-4.94672019492601,-31.5010696649551,2.14850828051567,-31.4808297157288,
1.48,1.48,1,1,1,1,1,-4.92255035477741,-1.70704908668995,-4.92758933954179,-31.4005726575851,2.22728550434113,-31.3803434371948,
1.56,1.56,1,1,1,1,1,-4.89847529425632,-1.10887922346592,-4.90354512438358,-31.3061964511871,2.35892105847597,-31.2859296798706,
1.64,1.64,1,1,1,1,1,-4.87806636633821,-0.655446201562881,-4.88311518579463,-31.2221360206604,2.48757172375917,-31.2019872665405,
1.72,1.72,1,1,1,1,1,-4.84993133553298,0.278623774647713,-4.85498328418629,-31.1387300491333,2.60493848472834,-31.1184096336365,
1.8,1.8,1,1,1,1,1,-4.83233157445758,0.521866604685783,-4.83738441715121,-31.0519444942474,2.71900650113821,-31.0316669940948,
1.88,1.88,1,1,1,1,1,-4.80784703003644,1.35172158479691,-4.81290836635096,-30.957316160202,2.85698231309652,-30.9370493888855,
1.96,1.96,1,1,1,1,1,-4.78584665813997,1.7149094492197,-4.79091067662677,-30.8613735437393,2.96434666961432,-30.8411121368408,
2.04,2.04,1,1,1,1,1,-4.7723716873984,1.82654708623886,-4.77750812550458,-30.768735408783,3.06628532707691,-30.7484793663025,
2.12,2.12,1,1,1,1,1,-4.76230043981731,1.89300626516342,-4.76737116378726,-30.6776314973831,3.20556238293648,-30.6574022769928,
2.2,2.2,1,1,1,1,1,-4.75353811020494,2.11659818887711,-4.75861330450856,-30.5846393108368,3.32869179546833,-30.5643832683563,
2.28,2.28,1,1,1,1,1,-4.74640388142663,2.32708640396595,-4.7514781816487,-30.4911643266678,3.45370769500732,-30.4709351062775,
2.36,2.36,1,1,1,1,1,-4.74283833165936,2.33786180615425,-4.74790816152723,-30.3964018821716,3.58001850545406,-30.3760600090027,
2.48,2.48,1,1,1,1,1,-4.74256295820692,2.19367444515228,-4.74763368214399,-30.270402431488,3.70138883590698,-30.2501571178436,
2.6,2.6,1,1,1,1,1,-4.74164519571041,1.95452012121677,-4.74671681371559,-30.1444083452225,3.80702614784241,-30.1242220401764,
2.72,2.72,1,1,1,1,1,-4.74062908555231,1.84880569577217,-4.74570293872993,-30.0249266624451,3.94184142351151,-30.0046706199646,
2.84,2.84,1,1,1,1,1,-4.74238235613747,1.9378773868084,-4.74745799745732,-29.8958534002304,4.09144014120102,-29.8755919933319,
2.92,2.92,1,1,1,1,1,-4.74256117006762,2.3184809833765,-4.74763636435294,-29.7919714450836,4.22826260328293,-29.7716188430786,
3,3,1,1,1,1,1,-4.74308285970885,2.80940905213356,-4.74815984213434,-29.6953099966049,4.3332364410162,-29.6750700473785,
3.04,3.04,1,1,1,1,1,-4.74355939883271,2.85765156149864,-4.74863593422417,-29.6453189849854,4.40199263393879,-29.6250736713409,
3.08,3.08,1,1,1,1,1,-4.74494565382622,2.7192197740078,-4.75001995404587,-29.5956981182098,4.46846820414066,-29.5754420757294,
3.2,3.2,1,1,1,1,1,-4.75713227020104,2.32615508139133,-4.7622016530579,-29.4669735431671,4.61727008223534,-29.446781873703,
3.28,3.28,1,1,1,1,1,-4.7605181119685,2.24119983613491,-4.76559062407479,-29.3721896409988,4.72711622714996,-29.3519389629364,
3.4,3.4,1,1,1,1,1,-4.76942259865533,1.88946723937988,-4.77448840525407,-29.2434006929398,4.87975962460041,-29.2231070995331,
3.52,3.52,1,1,1,1,1,-4.77982062869378,1.63527205586433,-4.78489045862329,-29.1176587343216,5.0328329205513,-29.0974080562592,
3.6,3.6,1,1,1,1,1,-4.7844577209375,1.61340460181236,-4.78952665680508,-29.0290331840515,5.13387657701969,-29.0088415145874,
3.72,3.72,1,1,1,1,1,-4.79672837985948,1.38808973133564,-4.80170790878228,-28.8997936248779,5.27216121554375,-28.8795697689056,
3.84,3.84,1,1,1,1,1,-4.80913672550768,1.157121732831,-4.81419493258056,-28.7732523679733,5.39987944066525,-28.7527227401733,
3.92,3.92,1,1,1,1,1,-4.81646899071364,1.21686607599258,-4.8215298800077,-28.6776369810104,5.50855621695518,-28.6573970317841,
4.04,4.04,1,1,1,1,1,-4.83106199555349,1.29560939967632,-4.83612020266292,-28.5585308074951,5.60565590858459,-28.5381996631622,
4.12,4.12,1,1,1,1,1,-4.84113905458731,1.37000344693661,-4.84620441427075,-28.4759187698364,5.73154762387276,-28.4555232524872,
4.24,4.24,1,1,1,1,1,-4.85368732213586,1.85364857316017,-4.85874240003921,-28.3472746610641,5.85831068456173,-28.3269917964935,
4.36,4.36,1,1,1,1,1,-4.87295139386616,2.09907069802284,-4.87800066034888,-28.2263123989105,5.99412843585014,-28.2060563564301,
4.48,4.48,1,1,1,1,1,-4.89194813877088,2.15542502701283,-4.89699606418078,-28.100318312645,6.08660615980625,-28.0800569057465,
4.6,4.6,1,1,1,1,1,-4.91576615426737,1.96960754692554,-4.92075373001544,-27.9718673229218,6.19706176221371,-27.9515147209167,
4.72,4.72,1,1,1,1,1,-4.93822786610364,1.76633708178997,-4.94326506275485,-27.8570687770844,6.308863312006,-27.8367805480957,
4.84,4.84,1,1,1,1,1,-4.95706725474983,1.71607360243797,-4.96209908701452,-27.7407038211823,6.43577948212624,-27.7204692363739,
4.92,4.92,1,1,1,1,1,-4.97209790668374,1.51044689118862,-4.9771453851924,-27.6559621095657,6.55797868967056,-27.6356470584869,
5.04,5.04,1,1,1,1,1,-4.98956311027669,1.7386581748724,-4.99458823707315,-27.5316470861435,6.66073262691498,-27.5114178657532,
5.12,5.12,1,1,1,1,1,-5.00034156695154,1.68647617101669,-5.00536624673114,-27.4433970451355,6.76077902317047,-27.4231088161469,
5.24,5.24,1,1,1,1,1,-5.01669141865515,1.6814935952425,-5.02171118107892,-27.3258572816849,6.84520974755287,-27.3055958747864,
5.36,5.36,1,1,1,1,1,-5.02737957429527,1.47051177918911,-5.0323984426672,-27.209165096283,6.95717111229897,-27.1888554096222,
5.48,5.48,1,1,1,1,1,-5.03709900546879,1.25120393931866,-5.04211742682208,-27.0804136991501,7.09471181035042,-27.0601522922516,
5.6,5.6,1,1,1,1,1,-5.0474067344725,1.08275562524796,-5.05242023845989,-26.9597089290619,7.21922367811203,-26.9394528865814,
5.64,5.64,1,1,1,1,1,-5.04997137326574,0.879578292369843,-5.05498755946636,-26.9356387853622,7.19885975122452,-26.9153773784637,
5.72,5.72,1,1,1,1,1,-5.05870509264927,0.799344852566719,-5.06371904369032,-26.9147765636444,7.11444541811943,-26.89453125,
5.8,5.8,1,1,2,1,1,-5.06255048621723,0.633122399449348,-5.06756309616021,-26.8918114900589,7.09598734974861,-26.8715500831604,
5.8,0,1,1,2,1,1,-5.06255048621723,0.633122399449348,-5.06756309616021,-26.8918114900589,7.09598734974861,-26.8715500831604,
5.84,0.04,1,1,2,1,1,-5.0639304827232,0.616172328591347,-5.06894130452917,-26.8813669681549,7.08013772964478,-26.8609392642975,
5.88,0.0800000000000001,1,1,2,1,1,-5.0656158040149,0.580558553338051,-5.07062439064955,-26.8858677148819,7.00434893369675,-26.8656170368195,
5.92,0.12,1,1,2,1,1,-5.06687912443143,0.578723847866058,-5.07189039327714,-26.8947243690491,6.93304985761642,-26.8744683265686,
5.96,0.16,1,1,2,1,1,-5.06795021987305,0.691469758749008,-5.07296148872055,-26.9028407335281,6.85881227254868,-26.8826007843018,
6,0.2,1,1,2,1,1,-5.06852600072815,0.654133036732674,-5.07353682254178,-26.9156563282013,6.81566074490547,-26.8954110145569,
6.04,0.24,1,1,2,1,1,-5.06897616479731,0.77282078564167,-5.07398698661169,-26.9389808177948,6.68100714683533,-26.9187247753143,
6.08,0.28,1,1,2,1,1,-5.06968426796072,0.815894454717636,-5.07476616831364,-26.9600468873978,6.63608014583588,-26.9397962093353,
6.12,0.32,1,1,2,1,1,-5.07039818257686,0.939862802624702,-5.07545370787623,-26.9814670085907,6.50652945041656,-26.961168050766,
6.16,0.36,1,1,2,1,1,-5.07097083418818,1.04333274066448,-5.0760057958865,-27.0141094923019,6.42550364136696,-26.9940090179443,
6.2,0.4,1,1,2,1,1,-5.07310721361869,1.01076439023018,-5.078115353231,-27.0466929674149,6.31181597709656,-27.0264530181885,
6.24,0.44,1,1,2,1,1,-5.07670494989339,1.00656412541866,-5.08175332264604,-27.088868021965,6.18300214409828,-27.0686280727386,
6.28,0.48,1,1,2,1,1,-5.08025485344177,0.996571034193039,-5.08525718161325,-27.1233826875687,6.0756228864193,-27.1031427383423,
6.32,0.52,1,1,2,1,1,-5.08380833326875,1.01490877568722,-5.08882809580437,-27.1720004081726,5.95643557608128,-27.1516799926758,
6.36,0.560000000000001,1,1,2,1,1,-5.08539038951578,1.03900209069252,-5.09039629397444,-27.2189766168594,5.83823956549168,-27.1986508369446,
6.4,0.600000000000001,1,1,2,1,1,-5.08736941268776,1.19566917419434,-5.09237621121936,-27.2679859399796,5.70512413978577,-27.2478103637695,
6.44,0.640000000000001,1,1,2,1,1,-5.08977982446624,1.18102878332138,-5.09478662300185,-27.3156380653381,5.61377257108688,-27.2953820228577,
6.48,0.680000000000001,1,1,2,1,1,-5.09218621293128,1.20055861771107,-5.09719256443609,-27.3665195703506,5.50652742385864,-27.3462688922882,
6.52,0.720000000000001,1,1,2,1,1,-5.0934562388702,1.3241171836853,-5.09846437851642,-27.4165481328964,5.40261454880238,-27.396297454834,
6.56,0.760000000000001,1,1,2,1,1,-5.09527254136574,1.35703943669796,-5.10036025321404,-27.4611264467239,5.31077533960342,-27.4410367012024,
6.6,0.800000000000001,1,1,2,1,1,-5.09644287853859,1.43388286232948,-5.10146666440871,-27.5035750865936,5.21153695881367,-27.483297586441,
6.64,0.840000000000001,1,1,2,1,1,-5.09885105514294,1.34666450321674,-5.10385338334542,-27.5508248806,5.09661473333836,-27.5305902957916,
6.68,0.88,1,1,2,1,1,-5.10254803314887,1.40351243317127,-5.10754946728786,-27.5996893644333,4.99852001667023,-27.5794816017151,
6.72,0.92,1,1,2,1,1,-5.10733890537252,1.24466605484486,-5.11234078655431,-27.6467996835709,4.90642711520195,-27.626291513443,
6.76,0.96,1,1,2,1,1,-5.11270019403336,1.18223018944263,-5.11770162818926,-27.6919144392014,4.81532998383045,-27.6716637611389,
6.8,1,1,1,2,1,1,-5.11531445369221,1.26690603792667,-5.12031544081764,-27.7345615625381,4.71511818468571,-27.7143108844757,
6.84,1.04,1,1,2,1,1,-5.11890012002662,1.19148753583431,-5.12390110715803,-27.7825999259949,4.62740138173103,-27.7623224258423,
6.88,1.08,1,1,2,1,1,-5.12266862360461,1.15274451673031,-5.12767184591643,-27.8308099508286,4.52727153897285,-27.8106021881104,
6.92,1.12,1,1,2,1,1,-5.1263173218494,1.12684443593025,-5.13127360551056,-27.8761178255081,4.42814454436302,-27.855920791626,
6.96,1.16,1,1,2,1,1,-5.13015600989498,0.998778268694878,-5.13502243956248,-27.9231637716293,4.3405544012785,-27.9026448726654,
7,1.2,1,1,2,1,1,-5.13402733148281,0.996515154838562,-5.1390175898036,-27.970644235611,4.25754338502884,-27.9504203796387,
7.04,1.24,1,1,2,1,1,-5.13830992510999,0.886702910065651,-5.14327380838318,-28.0174970626831,4.18599471449852,-27.9974770545959,
7.08,1.28,1,1,2,1,1,-5.14336633601992,0.785542652010918,-5.14837224057519,-28.0615872144699,4.10235337913036,-28.0413150787354,
7.12,1.32,1,1,2,1,1,-5.1476471415078,0.6910040974617,-5.15262085956273,-28.1076407432556,4.03047576546669,-28.0873954296112,
7.16,1.36,1,1,2,1,1,-5.15137362381221,0.653360038995743,-5.156358517744,-28.1528842449188,3.94310653209686,-28.1326282024384,
7.2,1.4,1,1,2,1,1,-5.15555027018577,0.534923747181892,-5.1605722680151,-28.2011371850967,3.86337377130985,-28.1808865070343,
7.24,1.44,1,1,2,1,1,-5.15906888129638,0.385772436857224,-5.164053775241,-28.2416170835495,3.81534956395626,-28.2213664054871,
7.28,1.48,1,1,2,1,1,-5.16246098155139,0.37219375371933,-5.16738686690462,-28.2869732379913,3.71713750064373,-28.2667279243469,
7.32,1.52,1,1,2,1,1,-5.16584011779648,0.225864350795746,-5.17057780149353,-28.333927989006,3.63005064427853,-28.3136236667633,
7.36,1.56,1,1,2,1,1,-5.16869845846999,0.182799994945526,-5.17372447963466,-28.376060128212,3.53968814015388,-28.3557987213135,
7.4,1.6,1,1,2,1,1,-5.17155501100419,0.0754836946725845,-5.17658371438258,-28.4300851821899,3.45386601984501,-28.4099364280701,
7.44,1.64,1,1,2,1,1,-5.17392876592699,0.0797398388385773,-5.17890963658294,-28.4739124774933,3.39320078492165,-28.4536457061768,
7.48,1.68,1,1,2,1,1,-5.17600077234264,0.0138673931360245,-5.18096599678313,-28.5201162099838,3.32005396485329,-28.4998548030853,
7.52,1.72,1,1,2,1,1,-5.17866778211089,0.00430271029472351,-5.18364373539165,-28.5653811693192,3.23238670825958,-28.5451090335846,
7.56,1.76,1,1,2,1,1,-5.1815243346451,-0.135926529765129,-5.18634963719421,-28.6146318912506,3.15802022814751,-28.594354391098,
7.6,1.8,1,1,2,1,1,-5.1843808871793,-0.21783635020256,-5.18929514966358,-28.6563885211945,3.09797655791044,-28.6361217498779,
7.64,1.84,1,1,2,1,1,-5.18610197125703,-0.199573114514351,-5.19108910042084,-28.7034291028976,3.02889477461576,-28.6831569671631,
7.68,1.88,1,1,2,1,1,-5.18735143359398,-0.167218968272209,-5.19233588055092,-28.7494719028473,2.9636699706316,-28.7292051315308,
7.72,1.92,1,1,2,1,1,-5.18832284026954,-0.125449150800705,-5.19323397351661,-28.7952035665512,2.8900558128953,-28.7749421596527,
7.76,1.96,1,1,2,1,1,-5.18898042849769,-0.189179554581642,-5.19403729509917,-28.8415735960007,2.82894410192966,-28.8213336467743,
7.8,2,1,1,2,1,1,-5.19036355424743,-0.141067430377007,-5.19530106255263,-28.8845372200012,2.77208033949137,-28.8643026351929,
7.84,2.04,1,1,2,1,1,-5.19179183051453,-0.155782327055931,-5.19663993185689,-28.9262080192566,2.71299071609974,-28.9059627056122,
7.88,2.08,1,1,2,1,1,-5.19289779467253,-0.201854854822159,-5.19786212507153,-28.970775604248,2.64112278819084,-28.9505302906036,
7.92,2.12,1,1,2,1,1,-5.19378873507952,-0.188564881682396,-5.1987700528034,-29.0112340450287,2.59998496621847,-28.9909887313843,
7.96,2.16,1,1,2,1,1,-5.19519734181431,-0.149998813867569,-5.20015764890371,-29.056311249733,2.51685008406639,-29.0360605716705,
8,2.2,1,1,2,1,1,-5.1959421018334,-0.182101503014565,-5.20103786047636,-29.1072678565979,2.4364335462451,-29.0870010852814,
8.04,2.24,1,1,2,1,1,-5.19665646348436,-0.174343585968018,-5.20157832558115,-29.150698184967,2.38285921514034,-29.1305708885193,
8.08,2.28,1,1,2,1,1,-5.1973703781005,-0.245710834860802,-5.20197976285501,-29.1851431131363,2.32653357088566,-29.1648924350739,
8.12,2.32,1,1,2,1,1,-5.19808473975147,-0.22590160369873,-5.2027750378107,-29.2323607206345,2.27126851677895,-29.212110042572,
8.16,2.36,1,1,2,1,1,-5.19866677909412,-0.255443155765533,-5.20357835939325,-29.2726582288742,2.21491064876318,-29.2523646354675,
8.2,2.4,1,1,2,1,1,-5.19902351288478,-0.250805169343948,-5.20426724006032,-29.3190604448318,2.14269068092108,-29.2987561225891,
8.24,2.44,1,1,2,1,1,-5.19938069371026,-0.248700380325317,-5.20479027080689,-29.3623727560043,2.06777211278677,-29.3421006202698,
8.28,2.48,1,1,2,1,1,-5.20001727130161,-0.242339447140694,-5.20523641156337,-29.407154917717,2.01818756759167,-29.3868827819824,
8.32,2.52,1,1,2,1,1,-5.20125287555897,-0.293226912617683,-5.20591545746426,-29.4491529464722,1.96496825665236,-29.4288861751556,
8.36,2.56,1,1,2,1,1,-5.20150500320049,-0.372119247913361,-5.20659942074824,-29.4898527860641,1.91135462373495,-29.4696235656738,
8.4,2.6,1,1,2,1,1,-5.20209777137895,-0.322097912430763,-5.20713496846994,-29.5313841104507,1.8359923735261,-29.5111978054047,
8.44,2.64,1,1,2,1,1,-5.20277681727871,-0.31287781894207,-5.20767051619164,-29.5787626504898,1.75385158509016,-29.5584905147552,
8.48,2.68,1,1,2,1,1,-5.20305129666149,-0.314051285386086,-5.20803306143563,-29.6213722229004,1.71064622700214,-29.6012020111084,
8.52,2.72,1,1,2,1,1,-5.2033190705219,-0.384580343961716,-5.20830083529648,-29.6619272232056,1.65261290967464,-29.641649723053,
8.56,2.76,1,1,2,1,1,-5.20350727218338,-0.452985987067223,-5.2085149649782,-29.7050356864929,1.59391053020954,-29.6847152709961,
8.6,2.8,1,1,2,1,1,-5.20361992495938,-0.573489814996719,-5.20860437194343,-29.7447699308395,1.53563879430294,-29.7244656085968,
8.64,2.84,1,1,2,1,1,-5.20370888488963,-0.741323456168175,-5.20869377890865,-29.7973036766052,1.48008270189166,-29.7770369052887,
8.68,2.88,1,1,2,1,1,-5.20379829185471,-0.905003398656845,-5.20878273883905,-29.8405140638351,1.43995210528374,-29.8202526569366,
8.72,2.92,1,1,2,1,1,-5.20444023386396,-0.954717397689819,-5.20943853892899,-29.8827803134918,1.3809472322464,-29.8625671863556,
8.76,2.96,1,1,2,1,1,-5.20466553941595,-1.24640762805939,-5.20964193977487,-29.9171555042267,1.34935490787029,-29.8968994617462,
8.8,3,1,1,2,1,1,-5.20475494638103,-1.34368427097797,-5.2097313467401,-29.9635308980942,1.29148447886109,-29.9431729316711,
8.84,3.04,1,1,2,1,1,-5.20484390631128,-1.38983130455017,-5.2098203066705,-30.0105607509613,1.24357547610998,-29.990326166153,
8.88,3.08,1,1,2,1,1,-5.20493286624154,-1.48315913975239,-5.2099074784616,-30.0481384992599,1.20276408270001,-30.0278878211975,
8.92,3.12,1,1,2,1,1,-5.20493286624154,-1.61244533956051,-5.2099074784616,-30.0806415081024,1.18492972105742,-30.060396194458,
8.96,3.16,1,1,2,1,1,-5.20473527684872,-1.71231105923653,-5.2097125712774,-30.1211696863174,1.1406010016799,-30.100919008255,
9,3.2,1,1,2,1,1,-5.20414921419264,-1.5985406935215,-5.20913723745617,-30.1538443565369,1.11918281763792,-30.1335883140564,
9.04,3.24,1,1,2,1,1,-5.20345631021329,-1.8098670989275,-5.20844075719706,-30.19222676754,1.07914051041007,-30.1719760894775,
9.08,3.28,1,1,2,1,1,-5.20327660221349,-1.77590176463127,-5.20826149623179,-30.2325028181076,1.05290114879608,-30.2122628688812,
9.12,3.32,1,1,2,1,1,-5.20309823531816,-1.84286385774612,-5.20808312933616,-30.2671086788177,1.01378737017512,-30.2468740940094,
9.16,3.36,1,1,2,1,1,-5.20283850808461,-2.01263464987278,-5.20782295506735,-30.3084307909012,0.965364091098309,-30.2881479263306,
9.2,3.4,1,1,2,1,1,-5.20258280416449,-2.08940356969833,-5.2075551812065,-30.3431332111359,0.922875851392746,-30.3229415416718,
9.24,3.44,1,1,2,1,1,-5.20240443726916,-2.25400552153587,-5.20743179959449,-30.387818813324,0.865410082042217,-30.367466211319,
9.28,3.48,1,1,2,1,1,-5.20222607037383,-2.46843323111534,-5.20734239262926,-30.4315441846848,0.809476897120476,-30.4112935066223,
