"Total Time (s)","Cycle Elapsed Time (s)","Total Cycles","Elapsed Cycles","Step","Total Cycle Count(Linear Waveform)","Total Cycle Count(Rotary Waveform)","Position(Linear:Position) (mm)","Load(Linear:Load) (N)","Displacement(Linear:Digital Position) (mm)","Rotation(Rotary:Rotation) (deg)","Torque(Rotary:Torque) (N·m)","Rotary Displacement(Rotary:Digital Rotation) (deg)",
0,0,1,1,1,1,1,19.9561871402135,-38.3536331355572,19.9532921759398,-29.9992847442627,-1.33120808750391,-29.9794685840607,
0.96,0.96,1,1,1,1,1,19.9561871402135,-38.5342724621296,19.9532921759398,-29.9482101202011,-1.22985821217299,-29.9279487133026,
1.16,1.16,1,1,1,1,1,19.9561871402135,-38.715610280633,19.9532921759398,-29.9009013175964,-1.12259313464165,-29.8805379867554,
1.32,1.32,1,1,1,1,1,19.9561871402135,-38.8991646468639,19.9532921759398,-29.8335832357407,-0.978359300643206,-29.8133325576782,
1.52,1.52,1,1,1,1,1,19.9561871402135,-39.1215458512306,19.9532921759398,-29.7415351867676,-0.848789047449827,-29.7212791442871,
1.64,1.64,1,1,1,1,1,19.9561871402135,-39.3503531813622,19.9532921759398,-29.6800750494003,-0.738466996699572,-29.6598136425018,
1.8,1.8,1,1,1,1,1,19.955443274264,-39.3982511013746,19.9532921759398,-29.5965349674225,-0.603881757706404,-29.576278924942,
1.96,1.96,1,1,1,1,1,19.9540145509621,-39.5414233207703,19.9532921759398,-29.5277577638626,-0.493406597524881,-29.5075178146362,
2.08,2.08,1,1,1,1,1,19.9529434555205,-39.6865513175726,19.9532921759398,-29.4590771198273,-0.377931073307991,-29.4388318061829,
2.2,2.2,1,1,1,1,1,19.9528272264659,-39.8806855082512,19.9532921759398,-29.3786001205444,-0.267942249774933,-29.3584299087524,
2.32,2.32,1,1,1,1,1,19.9528272264659,-40.0859210640192,19.9532921759398,-29.2987453937531,-0.124097242951393,-29.2785322666168,
2.44,2.44,1,1,1,1,1,19.9528272264659,-40.349792689085,19.9532921759398,-29.2010647058487,0.0155632384121418,-29.1808247566223,
2.52,2.52,1,1,1,1,1,19.9528272264659,-40.4522661119699,19.9532921759398,-29.1368526220322,0.141661148518324,-29.1165482997894,
2.6,2.6,1,1,1,1,1,19.9528272264659,-40.7159794121981,19.9532921759398,-29.0538221597672,0.261446181684732,-29.0335500240326,
2.68,2.68,1,1,1,1,1,19.9528272264659,-40.8247020095587,19.9532921759398,-28.9827114343643,0.371834449470043,-28.9624392986298,
2.8,2.8,1,1,1,1,1,19.9528272264659,-40.959045290947,19.9532921759398,-28.8781750202179,0.496765226125717,-28.8579404354095,
2.96,2.96,1,1,1,1,1,19.9528272264659,-41.1285553127527,19.9532921759398,-28.7781608104706,0.600194279104471,-28.7579691410065,
3.16,3.16,1,1,1,1,1,19.9528272264659,-41.2797834724188,19.9532921759398,-28.6565601825714,0.706268474459648,-28.6362934112549,
3.28,3.28,1,1,1,1,1,19.9528272264659,-41.4064805954695,19.9532921759398,-28.5808253288269,0.810767058283091,-28.5604512691498,
3.4,3.4,1,1,1,1,1,19.9528272264659,-41.7594984173775,19.9532921759398,-28.4800869226456,0.985723547637463,-28.4598362445831,
3.48,3.48,1,1,1,1,1,19.9528272264659,-42.041027918458,19.9532921759398,-28.3999371528625,1.10221393406391,-28.3796918392181,
3.6,3.6,1,1,1,1,1,19.9528272264659,-42.329914867878,19.9532921759398,-28.2990378141403,1.23676415532827,-28.2786691188812,
3.76,3.76,1,1,1,1,1,19.9528272264659,-42.4687378108501,19.9532921759398,-28.1881660223007,1.34181287139654,-28.1676578521729,
3.96,3.96,1,1,1,1,1,19.954547416474,-42.5074715167284,19.9532921759398,-28.0751699209213,1.40718463808298,-28.0548870563507,
4.16,4.16,1,1,1,1,1,19.9562622420641,-42.4724631011486,19.9532921759398,-27.9723447561264,1.46291321143508,-27.9521262645721,
4.4,4.4,1,1,1,1,1,19.9562622420641,-42.5903126597404,19.9532921759398,-27.8564357757568,1.55489863827825,-27.8362226486206,
4.56,4.56,1,1,1,1,1,19.9562622420641,-42.765848338604,19.9532921759398,-27.7692478895187,1.65857933461666,-27.7489542961121,
4.76,4.76,1,1,1,1,1,19.9562622420641,-43.0562719702721,19.9532921759398,-27.6603555679321,1.77686475217342,-27.6401853561401,
4.92,4.92,1,1,1,1,1,19.9562622420641,-43.2802829891443,19.9532921759398,-27.5656896829605,1.88203677535057,-27.5454068183899,
5.08,5.08,1,1,1,1,1,19.9562622420641,-43.5228366404772,19.9532921759398,-27.4579989910126,1.99512839317322,-27.4377644062042,
5.24,5.24,1,1,1,1,1,19.9558241479353,-43.9257081598043,19.9532921759398,-27.3389357328415,2.12310757488012,-27.3186314105988,
5.4,5.4,1,1,1,1,1,19.9543954246333,-44.2158244550228,19.9532921759398,-27.221964597702,2.22581923007965,-27.2016978263855,
5.56,5.56,1,1,1,1,1,19.9534673803358,-44.5472169667482,19.9532921759398,-27.1107548475266,2.32887007296085,-27.0904719829559,
5.68,5.68,1,1,1,1,1,19.9545384757775,-44.7959080338478,19.9532921759398,-27.0221239328384,2.4400195106864,-27.0019590854645,
5.84,5.84,1,1,1,1,1,19.9559671990794,-45.0816843658686,19.9532921759398,-26.9108122587204,2.55683809518814,-26.8905401229858,
6,6,1,1,1,1,1,19.9563158862432,-45.40522582829,19.9532921759398,-26.8018233776093,2.65968292951584,-26.7816209793091,
6.16,6.16,1,1,1,1,1,19.9563158862432,-45.7453727722168,19.9532921759398,-26.6925179958344,2.78297699987888,-26.6722297668457,
6.32,6.32,1,1,1,1,1,19.9563158862432,-46.0734218358994,19.9532921759398,-26.5816515684128,2.8899222612381,-26.5612614154816,
6.52,6.52,1,1,1,1,1,19.9563158862432,-46.3484507054091,19.9532921759398,-26.4514034986496,3.0152702704072,-26.4311420917511,
6.72,6.72,1,1,1,1,1,19.9563158862432,-46.6753076761961,19.9532921759398,-26.3356930017471,3.12326587736607,-26.3154208660126,
6.88,6.88,1,1,1,1,1,19.9563158862432,-46.9135772436857,19.9532921759398,-26.2289142608643,3.2176174223423,-26.2088191509247,
7.04,7.04,1,1,1,1,1,19.9563158862432,-47.2085271030664,19.9532921759398,-26.1207461357117,3.31805497407913,-26.100447177887,
7.2,7.2,1,1,1,1,1,19.9563158862432,-47.4447011947632,19.9533046929149,-26.0055077075958,3.42188812792301,-25.9851658344269,
7.36,7.36,1,1,1,1,1,19.9563158862432,-47.682449221611,19.9547334162192,-25.9004938602448,3.51450406014919,-25.8802485466003,
7.52,7.52,1,1,1,1,1,19.9563158862432,-48.0720866471529,19.9561603513842,-25.7790917158127,3.62634174525738,-25.7588410377502,
7.68,7.68,1,1,1,1,1,19.9563158862432,-48.3417138457298,19.9568791833846,-25.6770497560501,3.73674109578133,-25.6567561626434,
7.84,7.84,1,1,1,1,1,19.9563158862432,-48.6135669052601,19.9568791833846,-25.5720841884613,3.83092239499092,-25.5517637729645,
8,8,1,1,1,1,1,19.9563158862432,-48.7612839788198,19.9568791833846,-25.4685670137405,3.92081364989281,-25.4483163356781,
8.2,8.2,1,1,1,1,1,19.9563158862432,-49.0501709282398,19.9568791833846,-25.3518158197403,4.01199832558632,-25.3315758705139,
8.4,8.4,1,1,1,1,1,19.9563158862432,-49.293078482151,19.9568791833846,-25.225505232811,4.11574430763721,-25.2052652835846,
8.6,8.6,1,1,1,1,1,19.9563158862432,-49.4746770709753,19.9568791833846,-25.1114737987518,4.21802215278149,-25.0911855697632,
8.76,8.76,1,1,1,1,1,19.9563158862432,-49.7174356132746,19.9568791833846,-25.0035202503204,4.32304032146931,-24.9834251403809,
8.96,8.96,1,1,1,1,1,19.9563158862432,-49.9456655234098,19.9568791833846,-24.8848485946655,4.447016492486,-24.8645067214966,
9.12,9.12,1,1,1,1,1,19.9563158862432,-50.0518176704645,19.9568791833846,-24.7815245389938,4.53783981502056,-24.7611558437347,
9.32,9.32,1,1,1,1,1,19.9563158862432,-50.2008758485317,19.9568791833846,-24.6593821048737,4.64020594954491,-24.6391153335571,
9.52,9.52,1,1,1,1,1,19.9563158862432,-50.2444058656693,19.9568791833846,-24.5395624637604,4.73074428737164,-24.5194351673126,
9.68,9.68,1,1,1,1,1,19.9563158862432,-50.3958202898502,19.9568791833846,-24.439183473587,4.82418648898602,-24.4189381599426,
9.88,9.88,1,1,1,1,1,19.9563158862432,-50.5437515676022,19.9568791833846,-24.3150615692139,4.9356434494257,-24.2948055267334,
10.08,10.08,1,1,1,1,1,19.9563158862432,-50.7355760782957,19.9568791833846,-24.1931337118149,5.06003051996231,-24.1728723049164,
10.28,10.28,1,1,1,1,1,19.9563158862432,-50.8857890963554,19.9568791833846,-24.0738666057587,5.15778996050358,-24.0536963939667,
10.48,10.48,1,1,1,1,1,19.9563158862432,-50.9981997311115,19.9568791833846,-23.9583599567413,5.2553940564394,-23.9380717277527,
10.72,10.72,1,1,1,1,1,19.9563158862432,-50.9558897465467,19.9568791833846,-23.8498431444168,5.31587451696396,-23.8295817375183,
11,11,1,1,1,1,1,19.9563158862432,-50.9579759091139,19.9568791833846,-23.7404733896255,5.36785274744034,-23.7203192710876,
11.28,11.28,1,1,1,1,1,19.9563158862432,-50.9652122855186,19.9562712160211,-23.6397510766983,5.42255565524101,-23.6195111274719,
11.52,11.52,1,1,1,1,1,19.9563158862432,-51.109129562974,19.9541290251343,-23.5353326797485,5.50479367375374,-23.514711856842,
11.76,11.76,1,1,1,1,1,19.9559224955968,-51.1314440518618,19.9532278029248,-23.4200727939606,5.61267845332623,-23.3994626998901,
12,12,1,1,1,1,1,19.9537803047136,-51.3013452291489,19.9532278029248,-23.3114486932755,5.70787638425827,-23.2909512519836,
12.24,12.24,1,1,1,1,1,19.9528701418091,-51.3220671564341,19.9532278029248,-23.200957775116,5.78369535505772,-23.1803584098816,
12.52,12.52,1,1,1,1,1,19.9528701418091,-51.3566099107265,19.9532278029248,-23.0928540229797,5.856953561306,-23.0722439289093,
12.56,12.56,1,1,1,1,1,19.9528701418091,-51.4036696404219,19.9532278029248,-23.0793142318726,5.86002357304096,-23.0587148666382,
12.8,12.8,1,1,1,1,1,19.9528701418091,-51.3968802988529,19.9532278029248,-22.9914933443069,5.90281337499619,-22.9708886146545,
13.16,13.16,1,1,1,1,1,19.9528701418091,-51.3306725770235,19.9532278029248,-22.8772473335266,5.96978738903999,-22.8566372394562,
13.56,13.56,1,1,1,1,1,19.9528701418091,-51.3975694775581,19.9532278029248,-22.7620303630829,6.02984465658665,-22.7414202690125,
14,14,1,1,1,1,1,19.9528701418091,-51.2514170259237,19.9532278029248,-22.6515072584152,6.06142021715641,-22.6308810710907,
14.48,14.48,1,1,1,1,1,19.9528701418091,-51.2516312301159,19.9532278029248,-22.5407266616821,6.09209276735783,-22.5201272964478,
14.92,14.92,1,1,1,1,1,19.9528701418091,-51.248399540782,19.9532278029248,-22.4347150325775,6.13298788666725,-22.4141156673431,
15.44,15.44,1,1,1,1,1.25,19.9528701418091,-51.2100383639336,19.9532278029248,-22.3219174146652,6.16365186870098,-22.3013126850128,
16.04,16.04,1,1,1,1,1.25,19.9528701418091,-51.1428993195295,19.9532278029248,-22.2116678953171,6.19547106325626,-22.1910738945007,
16.92,16.92,1,1,1,1,1.25,19.9528701418091,-50.9318336844444,19.9532278029248,-22.1015471220016,6.14317208528519,-22.0801162719727,
17.28,17.28,1,1,1,1,1.25,19.9528701418091,-50.9209837764502,19.9532278029248,-22.0793169736862,6.09932467341423,-22.0586264133453,
17.6,17.6,1,1,1,1,1.25,19.9528701418091,-50.7430173456669,19.9532278029248,-22.0802181959152,6.02853186428547,-22.0596134662628,
18.2,18.2,1,1,1,1,1.25,19.9528701418091,-50.6160221993923,19.9532278029248,-22.0802181959152,5.92337585985661,-22.0596134662628,
18.8,18.8,1,1,1,1,1.25,19.9558777921143,-50.4829548299313,19.9532278029248,-22.0802181959152,5.81967867910862,-22.0596134662628,
19.44,19.44,1,1,1,1,1.25,19.9563051574074,-50.2227339893579,19.9532278029248,-22.1043795347214,5.70165812969208,-22.0825409889221,
19.92,19.92,1,1,1,1,1.25,19.9563051574074,-50.1217413693666,19.9532278029248,-22.126652598381,5.59521317481995,-22.1060478687286,
20.28,20.28,1,1,1,1,1.25,19.9563051574074,-49.9278400093317,19.9532278029248,-22.1700400114059,5.49302771687508,-22.1494352817535,
20.64,20.64,1,1,1,1,1.25,19.9563051574074,-49.7510842978954,19.9532278029248,-22.2144520282745,5.36255091428757,-22.1938526630402,
20.96,20.96,1,1,1,1,1.25,19.9563051574074,-49.5247915387154,19.9556739774934,-22.258483171463,5.25320991873741,-22.2378838062286,
21.28,21.28,1,1,1,1,1.25,19.9563051574074,-49.3882782757282,19.956564470867,-22.3249912261963,5.12534640729427,-22.3043918609619,
21.52,21.52,1,1,1,1,1.25,19.9563051574074,-49.2386054247618,19.956564470867,-22.3896431922913,5.00404089689255,-22.3690438270569,
21.72,21.72,1,1,1,1,1.25,19.9563051574074,-49.0217097103596,19.956564470867,-22.4667513370514,4.87496629357338,-22.4460983276367,
21.88,21.88,1,1,1,1,1.25,19.9563051574074,-48.8382019102573,19.956564470867,-22.5226646661758,4.75237593054771,-22.501984834671,
22.04,22.04,1,1,1,1,1.25,19.9563051574074,-48.593208193779,19.956564470867,-22.5953203439713,4.62282374501228,-22.5747263431549,
22.2,22.2,1,1,1,1,1.25,19.9563051574074,-48.4468229115009,19.956564470867,-22.676500082016,4.49553988873959,-22.6558685302734,
22.36,22.36,1,1,1,1,1.25,19.9563051574074,-48.4057702124119,19.956564470867,-22.7423322200775,4.39513698220253,-22.7216684818268,
22.52,22.52,1,1,1,1,1.25,19.9563051574074,-48.2591893523932,19.956564470867,-22.8085774183273,4.29088324308395,-22.787994146347,
22.72,22.72,1,1,1,1,1.25,19.9563051574074,-47.99566231668,19.9555488077421,-22.8747528791428,4.19084578752518,-22.8541374206543,
22.92,22.92,1,1,1,1,1.25,19.9563051574074,-47.9052495211363,19.9537642447162,-22.9394799470901,4.08219955861568,-22.9186713695526,
23.16,23.16,1,1,1,1,1.25,19.9548782222447,-47.7003492414951,19.9530436245764,-23.0274403095245,3.97751517593861,-23.006819486618,
23.36,23.36,1,1,1,1,1.25,19.9530918710825,-47.5232023745775,19.9530436245764,-23.0926179885864,3.87144759297371,-23.072007894516,
23.56,23.56,1,1,1,1,1.25,19.9532438629231,-47.3335757851601,19.9530436245764,-23.1791460514069,3.75802926719189,-23.1585359573364,
23.76,23.76,1,1,1,1,1.25,19.9550284259461,-47.0732990652323,19.9530436245764,-23.2628738880157,3.63778322935104,-23.242210149765,
23.92,23.92,1,1,1,1,1.25,19.955241214523,-46.8465592712164,19.9536247698504,-23.3365327119827,3.53309065103531,-23.3159387111664,
24.08,24.08,1,1,1,1,1.25,19.9538142793603,-46.6208904981613,19.9550517050154,-23.4200030565262,3.40910032391548,-23.3994090557098,
24.24,24.24,1,1,1,1,1.25,19.9551267736077,-46.379491686821,19.9546690432042,-23.5001528263092,3.28506529331207,-23.4796071052551,
24.4,24.4,1,1,1,1,1.25,19.9546082132102,-46.0993498563766,19.9532403198999,-23.5787039995193,3.15876044332981,-23.558464050293,
24.6,24.6,1,1,1,1,1.25,19.952821862048,-45.7755755633116,19.9526663271832,-23.6815559864044,3.05770598351955,-23.6612570285797,
24.8,24.8,1,1,1,1,1.25,19.9525250309239,-45.5735996365547,19.9526663271832,-23.7754172086716,2.94692888855934,-23.7551665306091,
25,25,1,1,1,1,1.25,19.9525250309239,-45.3313253819942,19.9526663271832,-23.8616609573364,2.84267030656338,-23.841404914856,
25.2,25.2,1,1,1,1,1.25,19.9525250309239,-45.060571283102,19.9526663271832,-23.9501684904099,2.7323542162776,-23.9298748970032,
25.36,25.36,1,1,1,1,1.25,19.9525250309239,-44.7813514620066,19.9526663271832,-24.0350550413132,2.61916983872652,-24.0147721767426,
25.48,25.48,1,1,1,1,1.25,19.9525250309239,-44.5288512855768,19.9526663271832,-24.1009676456451,2.51131057739258,-24.0807437896729,
25.6,25.6,1,1,1,1,1.25,19.9525250309239,-44.2713592201471,19.9526663271832,-24.1740471124649,2.40548700094223,-24.1538286209106,
25.72,25.72,1,1,1,1,1.25,19.9525250309239,-43.9947377890348,19.9526663271832,-24.2569971084595,2.29045618325472,-24.2367196083069,
25.84,25.84,1,1,1,1,1.25,19.9525250309239,-43.7226053327322,19.9526663271832,-24.3434178829193,2.17815171927214,-24.323011636734,
26,26,1,1,1,1,1.25,19.9525250309239,-43.4109289199114,19.9526663271832,-24.4488018751144,2.04744804650545,-24.4286370277405,
26.16,26.16,1,1,1,1,1.25,19.9525250309239,-43.0173426866531,19.9526663271832,-24.54669713974,1.93422194570303,-24.5264410972595,
26.32,26.32,1,1,1,1,1.25,19.9525250309239,-42.7733547985554,19.9526663271832,-24.6504718065262,1.82997118681669,-24.6302211284637,
26.48,26.48,1,1,1,1,1.25,19.9525250309239,-42.5532553344965,19.9526663271832,-24.742648601532,1.72962956130505,-24.7224998474121,
26.68,26.68,1,1,1,1,1.25,19.9525250309239,-42.2295928001404,19.9526663271832,-24.8523026704788,1.60743780434132,-24.8320841789246,
26.84,26.84,1,1,1,1,1.25,19.9525250309239,-42.0357286930084,19.9526663271832,-24.9415719509125,1.49690732359886,-24.9212729930878,
27,27,1,1,1,1,1.25,19.9525250309239,-41.626151651144,19.9526663271832,-25.0381851196289,1.37569373473525,-25.0179719924927,
27.16,27.16,1,1,1,1,1.25,19.9525250309239,-41.3984525948763,19.9526663271832,-25.1305443048477,1.26261049881577,-25.1103258132935,
27.36,27.36,1,1,1,1,1.25,19.9525250309239,-41.094645857811,19.9526663271832,-25.248915553093,1.13644786179066,-25.2286326885223,
27.52,27.52,1,1,1,1,1.25,19.9525250309239,-40.9116689115763,19.9526663271832,-25.3375142812729,1.03400442749262,-25.3172957897186,
27.68,27.68,1,1,1,1,1.25,19.9525250309239,-40.7888554036617,19.9526663271832,-25.4261827468872,0.928282644599676,-25.4058194160461,
27.84,27.84,1,1,1,1,1.25,19.9525250309239,-40.6770035624504,19.9526663271832,-25.5287289619446,0.828579161316156,-25.5083978176117,
28,28,1,1,1,1,1.25,19.9525250309239,-40.5032839626074,19.9526663271832,-25.6214153766632,0.719799660146236,-25.6013309955597,
28.16,28.16,1,1,1,1,1.25,19.9525250309239,-40.2871053665876,19.9526663271832,-25.720796585083,0.589653477072716,-25.7004976272583,
28.28,28.28,1,1,1,1,1.25,19.9525250309239,-40.1684641838074,19.9526663271832,-25.7963490486145,0.485001597553492,-25.7760608196259,
28.44,28.44,1,1,1,1,1.25,19.9525250309239,-39.9560015648603,19.9526663271832,-25.90467274189,0.364020932465792,-25.8844649791718,
28.6,28.6,1,1,1,1,1.25,19.9525250309239,-39.7858023643494,19.9526663271832,-26.0080397129059,0.231949146836996,-25.9878373146057,
28.76,28.76,1,1,1,1,1.25,19.9525250309239,-39.6002363413572,19.9526663271832,-26.1096900701523,0.12075137346983,-26.0894393920898,
28.92,28.92,1,1,1,1,1.25,19.9525250309239,-39.476603269577,19.9526663271832,-26.2213343381882,-0.00733677297830582,-26.2010407447815,
29.08,29.08,1,1,1,1,1.25,19.9525250309239,-39.2963923513889,19.9526663271832,-26.3244867324829,-0.109001621603966,-26.3042199611664,
29.24,29.24,1,1,1,1,1.25,19.9525250309239,-39.2247084528208,19.9526663271832,-26.431303024292,-0.227749813348055,-26.4111328125,
29.4,29.4,1,1,1,1,1.25,19.9525250309239,-39.2171368002892,19.9526663271832,-26.5334737300873,-0.354709010571241,-26.5132176876068,
29.56,29.56,1,1,1,1,1.25,19.9525250309239,-39.0479248017073,19.9526663271832,-26.6384339332581,-0.468636862933636,-26.6181242465973,
29.72,29.72,1,1,1,1,1.25,19.9525250309239,-38.9727205038071,19.9526663271832,-26.7508667707443,-0.59867212548852,-26.7307448387146,
29.88,29.88,1,1,1,1,1.25,19.9525250309239,-38.9218889176846,19.9526663271832,-26.8666470050812,-0.724407751113176,-26.8465304374695,
30.04,30.04,1,1,1,1,1.5,19.9525250309239,-38.8217810541391,19.9526663271832,-26.9739997386932,-0.848012883216143,-26.9537651538849,
30.2,30.2,1,1,1,1,1.5,19.9525250309239,-38.5608151555061,19.9526663271832,-27.0929127931595,-0.964279565960169,-27.0726084709167,
30.36,30.36,1,1,1,1,1.5,19.9525250309239,-38.2766500115395,19.9526663271832,-27.2176086902618,-1.0786147788167,-27.1973526477814,
30.52,30.52,1,1,1,1,1.5,19.9525250309239,-37.8637947142124,19.9526663271832,-27.3460114002228,-1.21329883113503,-27.3257446289063,
30.68,30.68,1,1,1,1,1.5,19.9525250309239,-37.3355392366648,19.9526663271832,-27.4796390533447,-1.33598623797297,-27.459511756897,
30.84,30.84,1,1,1,1,1.5,19.9525250309239,-37.0584148913622,19.9526663271832,-27.5998824834824,-1.46848661825061,-27.579642534256,
31,31,1,1,1,1,1.5,19.9525250309239,-36.6654992103577,19.9526663271832,-27.7213168144226,-1.57394949346781,-27.7010822296143,
31.16,31.16,1,1,1,1,1.5,19.9527002685755,-36.4104378968477,19.9526663271832,-27.8336691856384,-1.66929662227631,-27.8133702278137,
31.36,31.36,1,1,1,1,1.5,19.9544848315984,-36.1731648445129,19.9526663271832,-27.954626083374,-1.77251677960157,-27.9343807697296,
31.52,31.52,1,1,1,1,1.5,19.9559135549003,-35.910215228796,19.9526663271832,-28.0666726827621,-1.86757575720549,-28.0464005470276,
31.68,31.68,1,1,1,1,1.5,19.9559385888506,-35.5290155857801,19.9526663271832,-28.1963306665421,-1.99366509914398,-28.1760799884796,
31.8,31.8,1,1,1,1,1.5,19.9553252570701,-34.7382947802544,19.9526663271832,-28.3100455999374,-2.09371764212847,-28.2898056507111,
31.88,31.88,1,1,1,1,1.5,19.9546117894888,-34.2221185564995,19.9526663271832,-28.4124952554703,-2.2157359868288,-28.3922231197357,
