"Total Time (s)","Cycle Elapsed Time (s)","Total Cycles","Elapsed Cycles","Step","Total Cycle Count(Linear Waveform)","Total Cycle Count(Rotary Waveform)","Position(Linear:Position) (mm)","Load(Linear:Load) (N)","Displacement(Linear:Digital Position) (mm)","Rotation(Rotary:Rotation) (deg)","Torque(Rotary:Torque) (N·m)","Rotary Displacement(Rotary:Digital Rotation) (deg)",
0,0,1,1,1,1,1,-8.00131540702212,0.0164937227964401,-8.0016346032235,-31.6592448949814,0.00133290886878967,-31.6389834880829,
0.04,0.04,1,1,1,1,1,-8.00143342421602,0.0166520476341248,-8.0016346032235,-31.6597813367844,0.00430922955274582,-31.6395199298859,
0.08,0.08,1,1,1,1,1,-8.00161223814617,0.00231899321079254,-8.0016346032235,-31.6439616680145,0.00805472955107689,-31.6237056255341,
0.28,0.28,1,1,1,1,1,-8.00229173108076,-0.121118500828743,-8.0016346032235,-31.5243619680405,0.0818501226603985,-31.5041756629944,
0.4,0.4,1,1,1,1,1,-8.00175618335995,-0.17981044948101,-8.0016346032235,-31.3837820291519,0.155599229037762,-31.3635098934174,
0.48,0.48,1,1,1,1,1,-8.00139944956929,-0.211736187338829,-8.0016346032235,-31.2614625692368,0.214502029120922,-31.2411904335022,
0.6,0.6,1,1,1,1,1,-8.00101857589806,-0.330805778503418,-8.0016346032235,-31.1408007144928,0.261148251593113,-31.1205446720123,
0.72,0.72,1,1,1,1,1,-8.00101857589806,-0.320142135024071,-8.00112945386998,-31.034209728241,0.300912093371153,-31.0139107704163,
0.84,0.84,1,1,1,1,1,-8.00101857589806,-0.408664345741272,-8.00066721985976,-30.9222114086151,0.342410150915384,-30.9019553661346,
0.96,0.96,1,1,1,1,1,-8.00101857589806,-0.444594770669937,-8.00066721985976,-30.7839381694794,0.396513845771551,-30.7637786865234,
1.08,1.08,1,1,1,1,1,-8.00004046370012,-0.356677919626236,-8.00004941773005,-30.6480950117111,0.442672520875931,-30.6279194355011,
1.2,1.2,1,1,1,1,1,-7.99643736300752,-0.275038182735443,-7.99760324316146,-30.5237853527069,0.483431853353977,-30.5035507678986,
1.32,1.32,1,1,1,1,1,-7.99445431652212,-0.217864289879799,-7.99433541858246,-30.3909248113632,0.531572941690683,-30.370706319809,
1.44,1.44,1,1,1,1,1,-7.99168538281368,-0.163353979587555,-7.9917408284516,-30.2728915214539,0.568307936191559,-30.2526247501373,
1.56,1.56,1,1,1,1,1,-7.99110691974963,-0.185761600732803,-7.9912052807299,-30.1458191871643,0.605669151991606,-30.1255416870117,
1.68,1.68,1,1,1,1,1,-7.99057047795917,-0.176355242729187,-7.99066973300819,-30.0372701883316,0.634538941085339,-30.0170087814331,
1.72,1.72,1,1,1,1,1,-7.99051951598908,-0.174781307578087,-7.99051952930661,-29.9965113401413,0.647339038550854,-29.9762499332428,
1.8,1.8,1,1,1,1,1,-7.99051951598908,-0.0952277332544327,-7.99051952930661,-29.9095058441162,0.671317055821419,-29.8892498016357,
1.92,1.92,1,1,1,1,1,-7.99051951598908,-0.110529363155365,-7.99051952930661,-29.7594040632248,0.723299290984869,-29.7391211986542,
2.04,2.04,1,1,1,1,1,-7.99051951598908,0.019734725356102,-7.99051952930661,-29.6167534589767,0.769845955073833,-29.5964705944061,
2.16,2.16,1,1,1,1,1,-7.99051951598908,0.118482857942581,-7.99051952930661,-29.4823479652405,0.810135062783957,-29.4621133804321,
2.28,2.28,1,1,1,1,1,-7.99051951598908,0.052647665143013,-7.99051952930661,-29.365006685257,0.839174352586269,-29.3447399139404,
2.4,2.4,1,1,1,1,1,-7.99051951598908,0.211205333471298,-7.99051952930661,-29.2464852333069,0.871863588690758,-29.2263150215149,
2.52,2.52,1,1,1,1,1,-7.99051951598908,0.262781977653503,-7.99051952930661,-29.1314613819122,0.901230238378048,-29.1111838817596,
2.64,2.64,1,1,1,1,1,-7.99051951598908,0.303648412227631,-7.99051952930661,-28.9949959516525,0.953925400972366,-28.9747560024261,
2.76,2.76,1,1,1,1,1,-7.99096029232691,0.349869951605797,-7.99093527169491,-28.8842421770096,0.97355367615819,-28.8639378547668,
2.88,2.88,1,1,1,1,1,-7.99114804695357,0.368794426321983,-7.99147081941662,-28.7563920021057,1.01518984884024,-28.7361574172974,
3,3,1,1,1,1,1,-7.99248915142972,0.45466236770153,-7.99240691034253,-28.6467325687408,1.03542944416404,-28.6261868476868,
3.12,3.12,1,1,1,1,1,-7.99463134231297,0.467291101813316,-7.99454910122935,-28.529879450798,1.07002789154649,-28.5097253322601,
3.24,3.24,1,1,1,1,1,-7.99552541196374,0.552870333194733,-7.99546462855326,-28.3930331468582,1.11441742628813,-28.3727824687958,
3.36,3.36,1,1,1,1,1,-7.99606095968455,0.589713454246521,-7.99600017627496,-28.2871234416962,1.13991675898433,-28.2668673992157,
3.48,3.48,1,1,1,1,1,-7.99694877084776,0.721169635653496,-7.99689156371827,-28.1580394506454,1.17663759738207,-28.1377565860748,
3.6,3.6,1,1,1,1,1,-7.99801986628938,0.679353252053261,-7.99796265916167,-28.048283457756,1.20449904352427,-28.0280220508575,
3.72,3.72,1,1,1,1,1,-7.99902122429824,0.822274014353752,-7.99896312310255,-27.9246389865875,1.23573560267687,-27.9042971134186,
3.88,3.88,1,1,1,1,1,-8.00041329074449,0.842399895191193,-8.00036770652625,-27.7752238512039,1.27757918089628,-27.7549624443054,
4,4,1,1,1,1,1,-8.00504546560513,0.854143872857094,-8.0049980932553,-27.6568740606308,1.30589958280325,-27.6366448402405,
4.12,4.12,1,1,1,1,1,-8.00614159499697,0.986522063612938,-8.00609243450967,-27.5297051668167,1.34116942062974,-27.50941157341,
4.24,4.24,1,1,1,1,1,-8.00834547668612,1.01343728601933,-8.0083034687597,-27.4143594503403,1.37022482231259,-27.3941516876221,
4.36,4.36,1,1,1,1,1,-8.01430534497814,1.00372359156609,-8.01426244299201,-27.2960847616196,1.39250177890062,-27.2756838798523,
4.48,4.48,1,1,1,1,1,-8.01564376724535,1.05423852801323,-8.01559728898284,-27.179988026619,1.42173105850816,-27.1597266197205,
4.6,4.6,1,1,1,1,1,-8.02197020409419,1.06333754956722,-8.02189243340439,-27.061659693718,1.44873447716236,-27.0414090156555,
4.72,4.72,1,1,1,1,1,-8.02473287931507,1.12679786980152,-8.02493674057034,-26.9396674633026,1.48266218602657,-26.919379234314,
4.84,4.84,1,1,1,1,1,-8.02690725670574,1.22774392366409,-8.02654338373545,-26.8073755502701,1.51901049539447,-26.7870497703552,
4.96,4.96,1,1,1,1,1,-8.0280302081871,1.35766342282295,-8.02802217494028,-26.6933870315552,1.55112249776721,-26.6731417179108,
5.08,5.08,1,1,1,1,1,-8.0340088519418,1.30961649119854,-8.03395522115268,-26.573578119278,1.57888662070036,-26.5533328056335,
5.2,5.2,1,1,1,1,1,-8.04411988562235,1.44205056130886,-8.04407251333764,-26.4519667625427,1.61113664507866,-26.4317214488983,
5.32,5.32,1,1,1,1,1,-8.0463854581174,1.56393274664879,-8.04632646293099,-26.3420391082764,1.63962319493294,-26.3218367099762,
5.44,5.44,1,1,1,1,1,-8.0494673162036,1.67150981724262,-8.04940474474372,-26.2058955430985,1.67249701917171,-26.1856341362,
5.56,5.56,1,1,1,1,1,-8.05657069957896,1.7428956925869,-8.05629802176264,-26.0851907730103,1.70398261398077,-26.0648488998413,
5.68,5.68,1,1,1,1,1,-8.05978398590382,1.82188116014004,-8.05951220216251,-25.9682732820511,1.72981899231672,-25.947904586792,
5.8,5.8,1,1,1,1,1,-8.0688811446004,1.9417330622673,-8.06882483166044,-25.8366733789444,1.75887942314148,-25.8164012432098,
5.92,5.92,1,1,1,1,1,-8.07901005967397,1.80846080183983,-8.07895464082054,-25.7219123840332,1.7921244725585,-25.7016563415527,
6.04,6.04,1,1,1,1,1,-8.08271866058536,1.94729305803776,-8.0826596654595,-25.6078433990479,1.82193946093321,-25.5876088142395,
6.08,6.08,1,1,1,1,1,-8.08325420830617,2.02708877623081,-8.08319521318121,-25.5660438537598,1.83261856436729,-25.5457985401154,
6.16,6.16,1,1,1,1,1,-8.08797757827118,1.93388201296329,-8.08790517210931,-25.4815596342087,1.85507722198963,-25.4612982273102,
6.28,6.28,1,1,1,1,1,-8.10071002416779,1.78653746843338,-8.10064745279331,-25.3672868013382,1.88207253813744,-25.3470039367676,
6.4,6.4,1,1,1,1,1,-8.1043891207807,1.88660807907581,-8.10432565534271,-25.2435672283173,1.91440638154745,-25.2233648300171,
6.52,6.52,1,1,1,1,1,-8.11278175259247,1.83521769940853,-8.11271471088986,-25.1240801811218,1.93749275058508,-25.103759765625,
6.64,6.64,1,1,1,1,1,-8.11760078801012,1.90080143511295,-8.11752748782797,-24.9950337409973,1.97665765881538,-24.9749708175659,
6.76,6.76,1,1,1,1,1,-8.12452535745532,1.89004465937614,-8.1244466928668,-24.8763620853424,2.00867000967264,-24.8561060428619,
6.88,6.88,1,1,1,1,1,-8.13548307509515,1.77429057657719,-8.13541156308211,-24.7544503211975,2.03493218868971,-24.734194278717,
7,7,1,1,1,1,1,-8.14085375148732,1.79126858711243,-8.14079743866732,-24.631707072258,2.05990616232157,-24.6114885807037,
7.12,7.12,1,1,1,1,1,-8.14621459311334,1.72821804881096,-8.14614218704853,-24.508159160614,2.08867415785789,-24.4879031181335,
7.24,7.24,1,1,1,1,1,-8.16044907602323,1.54144130647182,-8.16038024626076,-24.3832808732986,2.11847722530365,-24.3631052970886,
7.36,7.36,1,1,1,1,1,-8.17181448942381,1.49445608258247,-8.17176085886437,-24.2667871713638,2.14847959578037,-24.2464184761047,
7.44,7.44,1,1,1,1,1,-8.17424546480425,1.41141004860401,-8.17417484692547,-24.1639459133148,2.17668451368809,-24.1437971591949,
7.56,7.56,1,1,1,1,1,-8.18075786814046,1.40788964927197,-8.18067920364565,-24.0593987703323,2.19729375094175,-24.0392875671387,
7.68,7.68,1,1,1,1,1,-8.19289307551035,1.22553668916225,-8.19282156359299,-23.9294296503067,2.23250351846218,-23.9091575145721,
7.8,7.8,1,1,1,1,1,-8.20758353394214,1.13209709525108,-8.20750308135274,-23.8080221414566,2.26732827723026,-23.7877607345581,
7.92,7.92,1,1,1,1,1,-8.213589893856,1.12033449113369,-8.21351122941592,-23.697697520256,2.2953100502491,-23.6774361133575,
8.04,8.04,1,1,1,1,1,-8.21778039830916,1.18055380880833,-8.21729850846289,-23.5723525285721,2.32648253440857,-23.5521018505096,
8.16,8.16,1,1,1,1,1,-8.22638760683711,1.16816721856594,-8.22588425933354,-23.4467929601669,2.36188843846321,-23.4262204170227,
8.28,8.28,1,1,1,1,1,-8.23891262857474,0.998117029666901,-8.23891890079383,-23.3311039209366,2.38993670791388,-23.3104991912842,
8.4,8.4,1,1,1,1,1,-8.25390885882709,0.860299915075302,-8.25337958334947,-23.2038760185242,2.42145583033562,-23.1832766532898,
8.52,8.52,1,1,1,1,1,-8.26801370163763,0.722659751772881,-8.26803070274105,-23.0944848060608,2.44872123003006,-23.0737352371216,
8.64,8.64,1,1,1,1,1,-8.2792539452871,0.564102083444595,-8.27862363998101,-22.9798847436905,2.47240252792835,-22.9592049121857,
8.76,8.76,1,1,1,1,1,-8.29218398057652,0.541796907782555,-8.29208385859578,-22.8666257858276,2.50768512487412,-22.8460264205933,
8.88,8.88,1,1,1,1,1,-8.3096424786471,0.301413238048553,-8.30953788634718,-22.7369517087936,2.55042556673288,-22.7163684368134,
9,9,1,1,1,1,1,-8.32124035015687,0.268397852778435,-8.32113575787629,-22.6276838779449,2.57742311805487,-22.6070308685303,
9.12,9.12,1,1,1,1,1,-8.33279262411446,0.140322372317314,-8.33268713778348,-22.504495382309,2.61273998767138,-22.4838531017303,
9.24,9.24,1,1,1,1,1,-8.34072481005609,0.122934579849243,-8.34062290001694,-22.3787587881088,2.64319013804197,-22.3581540584564,
9.36,9.36,1,1,1,1,1,-8.35418413457877,-0.0222213566303253,-8.35394722004456,-22.2560155391693,2.67443712800741,-22.2354161739349,
9.48,9.48,1,1,1,1,1,-8.36522231848716,-0.0177416950464249,-8.36474400516524,-22.136732339859,2.7142908424139,-22.1161544322968,
9.6,9.6,1,1,1,1,1,-8.3744509054224,-0.0983010977506638,-8.37437224125042,-22.0102393627167,2.74943355470896,-21.9896614551544,
9.72,9.72,1,1,1,1,1,-8.38111440652959,-0.130552798509598,-8.38096064051792,-21.88800573349,2.78465803712606,-21.8673956394196,
9.84,9.84,1,1,1,1,1,-8.38683287601591,-0.137072056531906,-8.38670235582473,-21.7555582523346,2.8183963149786,-21.7349696159363,
9.96,9.96,1,1,1,1,1,-8.39409093344085,-0.22456981241703,-8.39399885825682,-21.6390377283096,2.83841919153929,-21.6184329986572,
10.08,10.08,1,1,1,1,1,-8.39893589687837,-0.271238386631012,-8.39882057589146,-21.5100985765457,2.87700835615397,-21.4894831180573,
10.2,10.2,1,1,1,1,1,-8.40709160023269,-0.316211953759193,-8.40697359705041,-21.3836967945099,2.91401203721762,-21.3631081581116,
10.32,10.32,1,1,1,1,1,-8.4173322740126,-0.468138605356216,-8.41720622422052,-21.271339058876,2.94451769441366,-21.2507236003876,
10.44,10.44,1,1,1,1,1,-8.42962126136242,-0.615250319242477,-8.42949521159082,-21.1295038461685,2.99135446548462,-21.1089098453522,
10.56,10.56,1,1,1,1,1,-8.43977342224691,-0.665076076984406,-8.43922984196462,-21.0025388002396,3.03068459033966,-20.9819340705872,
10.68,10.68,1,1,1,1,1,-8.45202038832314,-0.748345628380775,-8.45189255044957,-20.8747315406799,3.06640863418579,-20.8541107177734,
10.8,10.8,1,1,1,1,1,-8.46670816454598,-0.874493271112442,-8.46657496227897,-20.7493168115616,3.10193132609129,-20.7287228107452,
10.92,10.92,1,1,1,1,1,-8.47595284473493,-1.03389844298363,-8.47581159585647,-20.6223732233047,3.14276032149792,-20.6017792224884,
11.04,11.04,1,1,1,1,1,-8.47958455565636,-0.946475192904472,-8.4794477771322,-20.5064427852631,3.1734261661768,-20.4858434200287,
11.16,11.16,1,1,1,1,1,-8.48153094528608,-0.885371118783951,-8.48140042525274,-20.3724449872971,3.21739129722118,-20.351904630661,
11.28,11.28,1,1,1,1,1,-8.48668078647451,-0.906586647033691,-8.48653417319601,-20.2577966451645,3.24612408876419,-20.2372455596924,
11.4,11.4,1,1,1,1,1,-8.49104116416132,-0.966610386967659,-8.4909017034473,-20.1437491178513,3.27854342758656,-20.1231551170349,
11.52,11.52,1,1,1,1,1,-8.49496881213715,-0.914400443434715,-8.49483024549933,-20.0141608715057,3.32795605063438,-19.9935615062714,
11.64,11.64,1,1,1,1,1,-8.49592457259382,-0.858120620250702,-8.49568497608689,-19.8908168077469,3.36350984871387,-19.8702335357666,
11.76,11.76,1,1,1,1,1,-8.49752942761695,-0.895606353878975,-8.49739175505305,-19.7731322050095,3.3969946205616,-19.7525382041931,
11.88,11.88,1,1,1,1,1,-8.49968502954495,-0.853883102536201,-8.49983792962163,-19.6561020612717,3.42495404183865,-19.6355080604553,
12,12,1,1,1,1,1,-8.50268016287503,-0.800406560301781,-8.50211065467768,-19.5279139280319,3.46235036849976,-19.5072984695435,
12.12,12.12,1,1,1,1,1,-8.50407580559988,-0.80576166510582,-8.5038630311961,-19.413565993309,3.500572219491,-19.3929719924927,
12.24,12.24,1,1,1,1,1,-8.50461135332069,-0.817514955997467,-8.5038630311961,-19.2946690320969,3.53727824985981,-19.2740643024445,
12.36,12.36,1,1,1,1,1,-8.50495378199694,-0.841096043586731,-8.50390773467872,-19.1791731119156,3.57100330293179,-19.1585469245911,
12.48,12.48,1,1,1,1,1,-8.50495378199694,-0.784657895565033,-8.50497883012212,-19.0682852268219,3.60104069113731,-19.0477073192596,
12.6,12.6,1,1,1,1,1,-8.5057208937573,-0.81564299762249,-8.50604992556553,-18.9492809772491,3.63545008003712,-18.9286494255066,
12.72,12.72,1,1,1,1,1,-8.50732843098938,-0.861706212162972,-8.50712102100893,-18.8299977779388,3.66981290280819,-18.8093984127045,
12.76,12.76,1,1,1,1,1,-8.50770662245166,-0.773118808865547,-8.50747775480019,-18.7943458557129,3.67805883288383,-18.7737464904785,
12.8,12.8,1,1,1,1,1,-8.50770662245166,-0.722724944353104,-8.50756626769576,-18.7598687410355,3.68690006434917,-18.7392961978912,
12.84,12.84,1,1,1,1,1,-8.50770662245166,-0.855997204780579,-8.50756626769576,-18.7176185846329,3.69975790381432,-18.6970353126526,
12.96,12.96,1,1,1,1,1,-8.50770662245166,-0.738641247153282,-8.50756626769576,-18.6096060276031,3.73526625335217,-18.589038848877,
13.08,13.08,1,1,1,1,1,-8.50770662245166,-0.763107091188431,-8.50756626769576,-18.4947055578232,3.76782827079296,-18.4741115570068,
13.2,13.2,1,1,1,1,1,-8.50770662245166,-0.766534358263016,-8.50756626769576,-18.3782815933228,3.8104172796011,-18.3576822280884,
13.32,13.32,1,1,1,1,1,-8.50770662245166,-0.753216445446014,-8.50756626769576,-18.2656288146973,3.84466201066971,-18.2449543476105,
13.44,13.44,1,1,1,1,1,-8.50770662245166,-0.761467963457108,-8.50756626769576,-18.1465548276901,3.87676544487476,-18.1259822845459,
13.56,13.56,1,1,1,1,1,-8.50770662245166,-0.724326819181442,-8.50756626769576,-18.0335050821304,3.91384474933147,-18.012900352478,
13.68,13.68,1,1,1,1,1,-8.50770662245166,-0.716140493750572,-8.50756626769576,-17.928062081337,3.94595861434937,-17.9074573516846,
13.8,13.8,1,1,1,1,1,-8.50770662245166,-0.6104726344347,-8.50756626769576,-17.8098839521408,3.9831567555666,-17.7892792224884,
13.92,13.92,1,1,1,1,1,-8.50770662245166,-0.625587999820709,-8.50756626769576,-17.698255777359,4.01608198881149,-17.6776134967804,
14.04,14.04,1,1,1,1,1,-8.50720773158653,-0.591175630688667,-8.50756626769576,-17.5800561904907,4.05307784676552,-17.5594782829285,
14.16,14.16,1,1,1,1,1,-8.5067669552487,-0.672563910484314,-8.5072247330886,-17.4662339687347,4.0855560451746,-17.4456453323364,
14.28,14.28,1,1,1,1,1,-8.5067669552487,-0.612316653132439,-8.50668918536689,-17.3525780439377,4.11704257130623,-17.3319625854492,
14.4,14.4,1,1,1,1,1,-8.5067669552487,-0.645779073238373,-8.50648533748618,-17.2334450483322,4.16482128202915,-17.2128295898438,
14.52,14.52,1,1,1,1,1,-8.5067669552487,-0.552376732230186,-8.50648533748618,-17.1190112829208,4.21158410608768,-17.0983529090881,
14.64,14.64,1,1,1,1,1,-8.5067669552487,-0.585559755563736,-8.50648533748618,-17.0085579156876,4.24950420856476,-16.9879746437073,
14.76,14.76,1,1,1,1,1,-8.5067669552487,-0.556111335754395,-8.50648533748618,-16.8822741508484,4.28894124925137,-16.861664056778,
14.88,14.88,1,1,1,1,1,-8.50673476874127,-0.520786270499229,-8.50646477388418,-16.7583400011063,4.32936772704124,-16.7377352714539,
15,15,1,1,1,1,1,-8.50513706627534,-0.522127375006676,-8.50472580841053,-16.6404837369919,4.36138585209847,-16.6198897361755,
15.12,15.12,1,1,1,1,1,-8.50466052715148,-0.541415065526962,-8.50472580841053,-16.5207928419113,4.4063001871109,-16.5002310276031,
15.24,15.24,1,1,1,1,1,-8.5042716068534,-0.555664300918579,-8.5040615146589,-16.3989132642746,4.44565676152706,-16.3783192634583,
15.36,15.36,1,1,1,1,1,-8.50320051141178,-0.574681907892227,-8.5029904192155,-16.2768405675888,4.48625460267067,-16.2562465667725,
15.48,15.48,1,1,1,1,1,-8.50212941597015,-0.577019527554512,-8.50191932377209,-16.1544406414032,4.52169664204121,-16.1338305473328,
15.6,15.6,1,1,1,1,1,-8.50135068130434,-0.602928921580315,-8.50116562305524,-16.0309088230133,4.55376133322716,-16.0102987289429,
15.72,15.72,1,1,1,1,1,-8.50081513358352,-0.586370006203651,-8.50063007533353,-15.9027314186096,4.59667965769768,-15.8821427822113,
15.84,15.84,1,1,1,1,1,-8.49774579247243,-0.429833307862282,-8.49737923807792,-15.7788187265396,4.63509373366833,-15.7581925392151,
15.96,15.96,1,1,1,1,1,-8.49336216897471,-0.411570072174072,-8.49326025918996,-15.6594389677048,4.67087961733341,-15.6388878822327,
16.08,16.08,1,1,1,1,1,-8.48862002354703,-0.36558136343956,-8.48848056282898,-15.533407330513,4.71491441130638,-15.5128240585327,
16.2,16.2,1,1,1,1,1,-8.48378757708462,-0.256970524787903,-8.48364543414956,-15.4011261463165,4.7556459903717,-15.3805267810822,
16.32,16.32,1,1,1,1,1,-8.47941378835306,-0.0166241079568863,-8.47929846750028,-15.2786457538605,4.78970073163509,-15.2580678462982,
16.44,16.44,1,1,1,1,1,-8.4754539538698,-0.0869669020175934,-8.47511869187596,-15.1507258415222,4.83581870794296,-15.1300621032715,
16.56,16.56,1,1,1,1,1,-8.47199658653028,-0.0065285712480545,-8.47187500717757,-15.0241470336914,4.88258861005306,-15.003547668457,
16.68,16.68,1,1,1,1,1,-8.46967468764723,-0.0044703483581543,-8.46904259451921,-14.8927456140518,4.92703653872013,-14.8721408843994,
16.8,16.8,1,1,1,1,1,-8.46683512243639,0.0873766839504242,-8.46679579748308,-14.7561138868332,4.97288964688778,-14.7354984283447,
16.92,16.92,1,1,1,1,1,-8.46578995501464,-0.0310502946376801,-8.46589993969152,-14.6330058574677,5.01466654241085,-14.6124064922333,
17.04,17.04,1,1,1,1,1,-8.46525440729383,-0.0861193984746933,-8.46536439196982,-14.5005798339844,5.06446845829487,-14.4799697399139,
17.16,17.16,1,1,1,1,1,-8.46471885957302,-0.0790785998106003,-8.46482884424811,-14.3747037649155,5.10826632380486,-14.3541097640991,
17.28,17.28,1,1,1,1,1,-8.46418331185221,-0.146273523569107,-8.46429329652641,-14.2373639345169,5.16103878617287,-14.2168128490448,
17.4,17.4,1,1,1,1,1,-8.4636477641314,-0.0471435487270355,-8.4637577488047,-14.1042083501816,5.19990622997284,-14.0835928916931,
17.52,17.52,1,1,1,1,1,-8.46311221641059,-0.0659655779600143,-8.463222201083,-13.9753496646881,5.23718558251858,-13.954793214798,
17.64,17.64,1,1,1,1,1,-8.46303085607236,-0.0950787216424942,-8.46276622556035,-13.8673424720764,5.27620427310467,-13.8467538356781,
