"Total Time (s)","Cycle Elapsed Time (s)","Total Cycles","Elapsed Cycles","Step","Total Cycle Count(Linear Waveform)","Total Cycle Count(Rotary Waveform)","Position(Linear:Position) (mm)","Load(Linear:Load) (N)","Displacement(Linear:Digital Position) (mm)","Rotation(Rotary:Rotation) (deg)","Torque(Rotary:Torque) (N·m)","Rotary Displacement(Rotary:Digital Rotation) (deg)",
0,0,1,1,1,1,1,-5.1796119196621,0.0288244336843491,-5.18435675593933,-32.6115041971207,-0.0148266553878784,-32.5911676883698,
0.16,0.16,1,1,1,1,1,-5.17900529340405,-0.216159969568253,-5.18410552236704,-32.5813776254654,0.10397732257843,-32.5610196590424,
0.24,0.24,1,1,1,1,1,-5.17895120219018,-0.283271074295044,-5.18428388926267,-32.5238013267517,0.259240437299013,-32.5035667419434,
0.32,0.32,1,1,1,1,1,-5.17895120219018,-0.583557412028313,-5.1842177281084,-32.4643957614899,0.425711646676064,-32.4440324306488,
0.4,0.4,1,1,1,1,1,-5.17895120219018,-1.18620693683624,-5.18403936121278,-32.3921477794647,0.586795248091221,-32.3718917369843,
0.48,0.48,1,1,1,1,1,-5.17893645004094,-1.65745615959167,-5.18386099431715,-32.3191326856613,0.761554110795259,-32.2989249229431,
0.56,0.56,1,1,1,1,1,-5.17874243692673,-2.08275392651558,-5.1836821803867,-32.2485423088074,0.910495687276125,-32.2282755374908,
0.64,0.64,1,1,1,1,1,-5.17721581299804,-2.44766473770142,-5.18221188284356,-32.1745401620865,1.04435328394175,-32.1542143821716,
0.72,0.72,1,1,1,1,1,-5.16565057503051,-2.36798077821732,-5.17063993933436,-32.1020400524139,1.14808306097984,-32.0818054676056,
0.8,0.8,1,1,1,1,1,-5.15765848642229,-2.45250761508942,-5.1626491918173,-32.037034034729,1.2841310352087,-32.0167136192322,
0.88,0.88,1,1,1,1,1,-5.14824214486039,-2.686632797122,-5.15321943919492,-31.9625920057297,1.40947438776493,-31.9423735141754,
0.96,0.96,1,1,1,1,1,-5.13354006352314,-2.37070024013519,-5.13854417992273,-31.8973177671433,1.54046639800072,-31.8769705295563,
1.04,1.04,1,1,1,1,1,-5.11127325887073,-2.20932997763157,-5.11627469302426,-31.8189543485641,1.64935290813446,-31.7987251281738,
1.12,1.12,1,1,1,1,1,-5.09336727893995,-2.3737084120512,-5.09835753719298,-31.737876534462,1.75857003778219,-31.7176580429077,
1.24,1.24,1,1,1,1,1,-5.05814629911754,-1.91257335245609,-5.06322059985919,-31.5931284427643,1.9104415550828,-31.573086977005,
1.32,1.32,1,1,1,1,1,-5.03724607992634,-1.03709287941456,-5.04226360721023,-31.5203547477722,2.02510748058558,-31.5000987052917,
1.4,1.4,1,1,1,1,1,-5.02068880406374,-0.56128017604351,-5.02570588428521,-31.43927693367,2.15906035155058,-31.4190101623535,
1.48,1.48,1,1,1,1,1,-5.00285703191398,0.135898590087891,-5.00788171169777,-31.3618361949921,2.31184810400009,-31.341644525528,
1.56,1.56,1,1,1,1,1,-4.9933830228596,0.412045046687126,-4.99841887849826,-31.2824642658234,2.43461932986975,-31.2622511386871,
1.64,1.64,1,1,1,1,1,-4.98594704557415,0.579562038183212,-4.9909654668422,-31.2011396884918,2.58695371448994,-31.1808943748474,
1.72,1.72,1,1,1,1,1,-4.98085621298267,0.835433602333069,-4.98588357493875,-31.1192947626114,2.70060934126377,-31.0991299152374,
1.8,1.8,1,1,1,1,1,-4.9782504469855,0.987770035862923,-4.98327736190242,-31.0386890172958,2.81624719500542,-31.018373966217,
1.88,1.88,1,1,1,1,1,-4.97716012904639,1.10511668026447,-4.98218838506596,-30.9434705972671,2.94822603464127,-30.9232091903687,
1.96,1.96,1,1,1,1,1,-4.97716012904639,1.21671706438065,-4.98218838506596,-30.8543783426285,3.05419471114874,-30.83411693573,
2.04,2.04,1,1,1,1,1,-4.97638497065917,1.45888887345791,-4.98140428598093,-30.7666110992432,3.15595604479313,-30.7463657855988,
2.12,2.12,1,1,1,1,1,-4.97568357301815,1.62212178111076,-4.98070244130391,-30.6807428598404,3.27661335468292,-30.6605672836304,
2.2,2.2,1,1,1,1,1,-4.97532683922749,1.9675400108099,-4.98034570751266,-30.5872571468353,3.40244509279728,-30.567022562027,
2.28,2.28,1,1,1,1,1,-4.97496965840201,2.27773562073708,-4.98012978969164,-30.5030572414398,3.50597351789474,-30.4828119277954,
2.32,2.32,1,1,1,1,1,-4.97479129150668,2.19420529901981,-4.97968633114412,-30.4671317338943,3.56069281697273,-30.446902513504,
2.36,2.36,1,1,1,1,1,-4.9747246833177,2.22010537981987,-4.97975606857699,-30.4247635602951,3.61770242452621,-30.4045128822327,
2.44,2.44,1,1,1,1,1,-4.97508186414318,2.07680277526379,-4.98011280236824,-30.3412234783173,3.72008047997952,-30.3209459781647,
2.52,2.52,1,1,1,1,1,-4.97543859793383,1.93818472325802,-4.98046998319432,-30.2565085887909,3.83112095296383,-30.2364027500153,
2.64,2.64,1,1,1,1,1,-4.97556734396355,1.81807205080986,-4.98059694108494,-30.1327782869339,3.94759438931942,-30.1125276088715,
2.72,2.72,1,1,1,1,1,-4.97669834207177,1.74574553966522,-4.98173106843883,-30.0422698259354,4.072105884552,-30.0219976902008,
2.8,2.8,1,1,1,1,1,-4.97728753397163,1.67755410075188,-4.98231847220037,-29.9535155296326,4.20977473258972,-29.9332809448242,
2.88,2.88,1,1,1,1,1,-4.97873235052727,1.55425630509853,-4.98375792434051,-29.8587316274643,4.36674766242504,-29.8386204242706,
3,3,1,1,1,1,1,-4.98194340167801,1.53169967234135,-4.9869689754966,-29.7273409366608,4.49722036719322,-29.7070741653442,
3.08,3.08,1,1,1,1,1,-4.98277667459252,1.51139684021473,-4.98780493062146,-29.6523034572601,4.59736399352551,-29.631929397583,
3.16,3.16,1,1,1,1,1,-4.98706150339383,1.37228518724442,-4.99208931239508,-29.5640802383423,4.71779890358448,-29.5438027381897,
3.24,3.24,1,1,1,1,1,-4.99111253298147,1.36418268084526,-4.99613900088499,-29.4885975122452,4.81832101941109,-29.4683361053467,
3.36,3.36,1,1,1,1,1,-4.99971080081292,1.0960828512907,-5.00473726873077,-29.3663531541824,4.95537742972374,-29.3460917472839,
3.44,3.44,1,1,1,1,1,-5.00602159144287,1.01434998214245,-5.01104448309264,-29.2782694101334,5.10471239686012,-29.2580187320709,
3.56,3.56,1,1,1,1,1,-5.01033145419441,0.985702499747276,-5.01534987550309,-29.1584873199463,5.22395521402359,-29.1382098197937,
3.64,3.64,1,1,1,1,1,-5.01251030193333,1.05405226349831,-5.01753900504665,-29.0694326162338,5.35331219434738,-29.0490531921387,
3.72,3.72,1,1,1,1,1,-5.01378435118568,1.11471861600876,-5.01880992505733,-28.9868420362473,5.45411370694637,-28.966623544693,
3.84,3.84,1,1,1,1,1,-5.02412963111473,1.08335167169571,-5.02914805244641,-28.854786157608,5.59520944952965,-28.8343584537506,
3.96,3.96,1,1,1,1,1,-5.03189596713613,1.03205442428589,-5.03690097743598,-28.7335985898972,5.74980713427067,-28.7133586406708,
4.08,4.08,1,1,1,1,1,-5.0358629541766,1.35074369609356,-5.04088629291092,-28.6099165678024,5.87192438542843,-28.5896766185761,
4.16,4.16,1,1,1,1,1,-5.03995868724677,1.45944766700268,-5.04496146238592,-28.527165055275,5.99822923541069,-28.5069143772125,
4.28,4.28,1,1,1,1,1,-5.05423027404718,1.42668373882771,-5.05924288397628,-28.4037780761719,6.13273456692696,-28.3835113048553,
4.4,4.4,1,1,1,1,1,-5.06703737475962,1.56995840370655,-5.07204998471007,-28.2824349403381,6.30369335412979,-28.2622539997101,
4.52,4.52,1,1,1,1,1,-5.08147704665437,1.53065659105778,-5.08648831552441,-28.1627815961838,6.42015486955643,-28.1425094604492,
4.64,4.64,1,1,1,1,1,-5.09815055157156,1.30560249090195,-5.10315377384252,-28.0393731594086,6.54124841094017,-28.0191171169281,
4.76,4.76,1,1,1,1,1,-5.11325049390341,1.2674555182457,-5.11825282212988,-27.9226756095886,6.64106011390686,-27.902569770813,
4.88,4.88,1,1,1,1,1,-5.1298395092386,1.28407962620258,-5.13483826121412,-27.8056401014328,6.79482668638229,-27.7853465080261,
5,5,1,1,1,1,1,-5.1460852018279,1.60613097250462,-5.15108708307428,-27.685541510582,6.92766085267067,-27.6652801036835,
5.12,5.12,1,1,1,1,1,-5.16378465166936,1.61658972501755,-5.16877803928353,-27.5647133588791,7.06093311309814,-27.5444519519806,
5.24,5.24,1,1,1,1,1,-5.18278720802681,1.57378613948822,-5.18777701939405,-27.447082400322,7.17270150780678,-27.4267673492432,
5.36,5.36,1,1,1,1,1,-5.20296546597502,1.43325887620449,-5.20794991295797,-27.3226922750473,7.28459507226944,-27.3024523258209,
5.48,5.48,1,1,1,1,1,-5.22248926493887,1.32719054818153,-5.2273887753374,-27.2041922807693,7.39419981837273,-27.1839416027069,
5.6,5.6,1,1,1,1,1,-5.24149137426149,1.1914037168026,-5.24647045689074,-27.088143825531,7.50183165073395,-27.0678234100342,
5.72,5.72,1,1,1,1,1,-5.26030036453955,1.20991840958595,-5.26529151714045,-26.9597840309143,7.66035541892052,-26.9395172595978,
5.84,5.84,1,1,1,1,1,-5.2776493390779,1.35093927383423,-5.28259757636441,-26.8447172641754,7.78520703315735,-26.8245685100555,
5.96,5.96,1,1,1,1,1,-5.2968007580322,1.43681652843952,-5.30177671150985,-26.7275583744049,7.91066810488701,-26.707227230072,
6.08,6.08,1,1,1,1,1,-5.31079205399709,1.60589814186096,-5.31575280831397,-26.6143369674683,8.00215229392052,-26.5940380096436,
6.2,6.2,1,1,1,1,1,-5.33344062639038,1.52502208948135,-5.33839556929226,-26.5120321512222,8.09021145105362,-26.491824388504,
6.28,6.28,1,1,1,1,1,-5.34242960265921,1.6050785779953,-5.34738588668056,-26.4311420917511,8.20552632212639,-26.4108753204346,
6.4,6.4,1,1,1,1,1,-5.36609294410612,1.32588669657707,-5.37104296967934,-26.3124006986618,8.3506241440773,-26.2921714782715,
6.52,6.52,1,1,1,1,1,-5.37961619460883,1.36889517307281,-5.38456532613494,-26.1895126104355,8.48119184374809,-26.1692941188812,
6.64,6.64,1,1,1,1,1,-5.39902868190116,0.959755852818489,-5.4039706609024,-26.0748106241226,8.59701186418533,-26.054527759552,
6.76,6.76,1,1,1,1,1,-5.40507572198413,1.08457170426846,-5.41001770099546,-25.9626621007919,8.71842727065086,-25.9424006938934,
6.84,6.84,1,1,1,1,1,-5.40676998397234,1.18756666779518,-5.41171196298649,-25.8822119235992,8.7962694466114,-25.8619773387909,
6.88,6.88,1,1,1,1,1,-5.40862964884594,1.13721936941147,-5.41357431007214,-25.857315659523,8.78364071249962,-25.836968421936,
7.04,7.04,1,1,1,1,1,-5.42235182984595,0.789286568760872,-5.42728710336367,-25.80815076828,8.67111459374428,-25.7878947257996,
7.12,7.12,1,1,2,1,1,-5.42733626814899,0.582411885261536,-5.43232295068002,-25.7916712760925,8.60585570335388,-25.7713937759399,
7.12,0,1,1,2,1,1,-5.42733626814899,0.582411885261536,-5.43232295068002,-25.7916712760925,8.60585570335388,-25.7713937759399,
7.16,0.04,1,1,2,1,1,-5.43219553670092,0.429218634963036,-5.43713259837435,-25.7762485742569,8.59118923544884,-25.7560515403748,
7.2,0.0800000000000001,1,1,2,1,1,-5.43471323683748,0.281184911727905,-5.43965029851511,-25.7798159122467,8.52549374103546,-25.7595598697662,
7.24,0.12,1,1,2,1,1,-5.43643432091521,0.324621796607971,-5.44137272370019,-25.7897025346756,8.48730057477951,-25.7694625854492,
7.28,0.16,1,1,2,1,1,-5.43831723159973,0.304467976093292,-5.44328647979085,-25.7966387271881,8.40299427509308,-25.7763612270355,
7.32,0.2,1,1,2,1,1,-5.44028105558765,0.171968713402748,-5.44525030378204,-25.8060532808304,8.38095992803574,-25.7857918739319,
7.36,0.24,1,1,2,1,1,-5.4422068816154,0.144541263580322,-5.44714617847966,-25.8184343576431,8.26713144779205,-25.7981729507446,
7.4,0.28,1,1,2,1,1,-5.44399189167317,0.217780470848083,-5.44884222860999,-25.8399295806885,8.21699723601341,-25.8196628093719,
7.44,0.32,1,1,2,1,1,-5.44491680672689,0.193668529391289,-5.44985118621257,-25.8525413274765,8.09717178344727,-25.8322906494141,
7.48,0.36,1,1,2,1,1,-5.44535266568164,0.176895409822464,-5.4502879392377,-25.8806455135345,8.04306715726852,-25.8604645729065,
7.52,0.4,1,1,2,1,1,-5.44759901567919,0.0786688178777695,-5.45253384220417,-25.9050750732422,7.93482884764671,-25.8847975730896,
7.56,0.44,1,1,2,1,1,-5.45046316780543,0.0277254730463028,-5.45539575916105,-25.9351640939713,7.83591195940971,-25.9149026870728,
7.6,0.48,1,1,2,1,1,-5.45195984040082,-0.0227149575948715,-5.45688527920172,-25.9646415710449,7.7325664460659,-25.9443747997284,
7.64,0.52,1,1,2,1,1,-5.45338811666792,0.0941753387451172,-5.4583135554712,-26.0025250911713,7.58636370301247,-25.9823334217072,
7.68,0.56,1,1,2,1,1,-5.45481639293503,0.132983550429344,-5.45974183174069,-26.0396254062653,7.49031156301498,-26.0191762447357,
7.72,0.6,1,1,2,1,1,-5.45624422216731,0.137723982334137,-5.46093005030854,-26.0785979032516,7.37430602312088,-26.0582613945007,
7.76,0.64,1,1,2,1,1,-5.45762064239467,0.213384628295898,-5.46212408032913,-26.1214649677277,7.25841596722603,-26.101176738739,
7.8,0.68,1,1,2,1,1,-5.4586461402841,0.204332172870636,-5.46337398970299,-26.1647933721542,7.13263154029846,-26.1446285247803,
7.84,0.72,1,1,2,1,1,-5.45965018050191,0.24884007871151,-5.46462345204202,-26.2115389108658,7.01031908392906,-26.19140625,
7.88,0.76,1,1,2,1,1,-5.46114372385352,0.2263393253088,-5.46599495488859,-26.257495880127,6.9060854613781,-26.2372076511383,
7.92,0.8,1,1,2,1,1,-5.46240033874768,0.313892960548401,-5.46741920784464,-26.3022726774216,6.79620578885078,-26.2820112705231,
7.96,0.84,1,1,2,1,1,-5.46356084115438,0.323876738548279,-5.46852919531792,-26.351518034935,6.66112080216408,-26.3312566280365,
8,0.88,1,1,2,1,1,-5.46472134356108,0.366345047950745,-5.46960029076132,-26.397802233696,6.54818713665009,-26.3775515556335,
8.04,0.920000000000001,1,1,2,1,1,-5.46588184596777,0.303369015455246,-5.47067540951817,-26.4448857307434,6.46084100008011,-26.4246296882629,
8.08,0.96,1,1,2,1,1,-5.46711208580723,0.396352261304855,-5.47233256761863,-26.4931333065033,6.36617615818977,-26.4728772640228,
8.12,1,1,1,2,1,1,-5.46853365655196,0.383472070097923,-5.47378990115181,-26.5316712856293,6.24693632125854,-26.51127576828,
8.16,1.04,1,1,2,1,1,-5.47014074674921,0.444930046796799,-5.47519135533173,-26.5780198574066,6.16482123732567,-26.557742357254,
8.2,1.08,1,1,2,1,1,-5.47174738991165,0.347364693880081,-5.47653067167081,-26.6209834814072,6.07228353619576,-26.600775718689,
8.24,1.12,1,1,2,1,1,-5.47322707518367,0.383267179131508,-5.47790306858703,-26.6718381643295,5.96827380359173,-26.6516089439392,
8.28,1.16,1,1,2,1,1,-5.47465535145077,0.388780608773232,-5.47959911871737,-26.7131978273392,5.89302107691765,-26.692807674408,
8.32,1.2,1,1,2,1,1,-5.47608362771788,0.37086196243763,-5.48121827885761,-26.7603403329849,5.76562322676182,-26.7401647567749,
8.36,1.24,1,1,2,1,1,-5.47764288518882,0.435896217823029,-5.48257458252009,-26.8100255727768,5.67430779337883,-26.789892911911,
8.4,1.28,1,1,2,1,1,-5.47951730221166,0.386582687497139,-5.48435959258082,-26.8531179428101,5.58823309838772,-26.8328189849854,
8.44,1.32,1,1,2,1,1,-5.48071714368299,0.28485432267189,-5.48564034735768,-26.9015371799469,5.49253895878792,-26.8812811374664,
8.48,1.36,1,1,2,1,1,-5.48244627438758,0.269608572125435,-5.48737573655272,-26.9485992193222,5.39935044944286,-26.9283485412598,
8.52,1.4,1,1,2,1,1,-5.48420535642546,0.311974436044693,-5.48913347748906,-26.9928824901581,5.31810484826565,-26.9724655151367,
8.56,1.44,1,1,2,1,1,-5.48536988214559,0.192988663911819,-5.49029934431561,-27.0401912927628,5.23249171674252,-27.0199728012085,
8.6,1.48,1,1,2,1,1,-5.48694255066129,0.198138877749443,-5.49186888359015,-27.0873713493347,5.14591075479984,-27.0671045780182,
8.64,1.52,1,1,2,1,1,-5.48858719178388,0.125803053379059,-5.4935139717503,-27.1266978979111,5.08629530668259,-27.1064257621765,
8.68,1.56,1,1,2,1,1,-5.49051793519472,0.0884197652339935,-5.49544426812953,-27.1773862838745,5.00791221857071,-27.1571516990662,
8.72,1.6,1,1,2,1,1,-5.49283894000812,-0.026896595954895,-5.49776482591197,-27.2229731082916,4.94061484932899,-27.2027385234833,
8.76,1.64,1,1,2,1,1,-5.49515994482151,-0.0532716512680054,-5.50008583072924,-27.2654271125793,4.85740005970001,-27.2451496124268,
8.8,1.68,1,1,2,1,1,-5.49617650201444,-0.144196674227715,-5.50110059978455,-27.3125749826431,4.78587113320827,-27.292377948761,
8.84,1.72,1,1,2,1,1,-5.49708130050102,-0.135414302349091,-5.50200629234229,-27.3594009876251,4.72584292292595,-27.3391664028168,
8.88,1.76,1,1,2,1,1,-5.49826862499724,-0.268425792455673,-5.50319182870119,-27.3998647928238,4.67668958008289,-27.379549741745,
8.92,1.8,1,1,2,1,1,-5.49960749429927,-0.294875353574753,-5.50453069800544,-27.4428123235703,4.59940992295742,-27.4225401878357,
8.96,1.84,1,1,2,1,1,-5.50073849240749,-0.252807512879372,-5.50566169611555,-27.484370470047,4.52639237046242,-27.4640607833862,
9,1.88,1,1,2,1,1,-5.50146090068531,-0.18891878426075,-5.50638499846423,-27.5298929214478,4.42718528211117,-27.5096690654755,
9.04,1.92,1,1,2,1,1,-5.50292851601705,-0.344710424542427,-5.50785261379841,-27.5666230916977,4.38056439161301,-27.5463831424713,
9.08,1.96,1,1,2,1,1,-5.50342695984735,-0.322246924042702,-5.50835239873403,-27.6074033975601,4.30800244212151,-27.5870561599731,
9.12,2,1,1,2,1,1,-5.50472112566684,-0.38953498005867,-5.50964477641637,-27.652759552002,4.22857254743576,-27.6324820518494,
9.16,2.04,1,1,2,1,1,-5.50586955813325,-0.429674983024597,-5.51079320888469,-27.6958680152893,4.16784435510635,-27.6756227016449,
9.2,2.08,1,1,2,1,1,-5.50701441432106,-0.46885572373867,-5.51193717100476,-27.7325820922852,4.10103313624859,-27.7123367786407,
9.24,2.12,1,1,2,1,1,-5.50798492692697,-0.487957149744034,-5.51291260099538,-27.7800089120865,4.00864966213703,-27.759758234024,
9.28,2.16,1,1,2,1,1,-5.50843553803096,-0.501768663525581,-5.51335874175185,-27.8253811597824,3.94024476408958,-27.80513048172,
9.32,2.2,1,1,2,1,1,-5.50943242569157,-0.569941475987434,-5.51435428830964,-27.8649544715881,3.87579835951328,-27.8446984291077,
9.36,2.24,1,1,2,1,1,-5.51059024588931,-0.696005299687386,-5.51550808519588,-27.9056006669998,3.80873493850231,-27.8853499889374,
9.4,2.28,1,1,2,1,1,-5.51103683367987,-0.679530203342438,-5.51597657769367,-27.9511177539825,3.73228415846825,-27.9308831691742,
9.44,2.32,1,1,2,1,1,-5.51198410047486,-0.742282718420029,-5.51688942280863,-27.9938238859177,3.67200560867786,-27.973358631134,
9.48,2.36,1,1,2,1,1,-5.51306681882195,-0.712396577000618,-5.51796051825203,-28.0336976051331,3.61895523965359,-28.0134093761444,
9.52,2.4,1,1,2,1,1,-5.51378118047291,-0.717742368578911,-5.51880899035203,-28.0766880512238,3.54827307164669,-28.0564534664154,
9.56,2.44,1,1,2,1,1,-5.51423134454207,-0.82407146692276,-5.51900702678,-28.1208264827728,3.47304567694664,-28.1005811691284,
9.6,2.48,1,1,2,1,1,-5.51556440239137,-0.876523554325104,-5.52051800449232,-28.1590908765793,3.41394580900669,-28.138872385025,
9.64,2.52,1,1,2,1,1,-5.51613884214199,-0.877156853675842,-5.52105623442298,-28.2081109285355,3.33402380347252,-28.1877636909485,
9.68,2.56,1,1,2,1,1,-5.51658542993255,-0.934209674596787,-5.52150237517946,-28.2438218593597,3.29338498413563,-28.2235765457153,
9.72,2.6,1,1,2,1,1,-5.51703157068828,-0.93960203230381,-5.52194851593593,-28.2877296209335,3.21024246513844,-28.2675111293793,
9.76,2.64,1,1,2,1,1,-5.51750900388179,-0.976752489805222,-5.52239510372724,-28.3302748203278,3.14405709505081,-28.3100295066834,
9.8,2.68,1,1,2,1,1,-5.51770748734426,-1.07066705822945,-5.52262577369752,-28.370121717453,3.07719092816114,-28.3498656749725,
9.84,2.72,1,1,2,1,1,-5.51752867341411,-1.08775682747364,-5.5224474068019,-28.417666554451,3.00414841622114,-28.3973729610443,
9.88,2.76,1,1,2,1,1,-5.51735030651878,-1.14233233034611,-5.52226859287144,-28.4583932161331,2.95958500355482,-28.4380996227264,
9.92,2.8,1,1,2,1,1,-5.51717193962345,-1.29152089357376,-5.52209022597582,-28.4993505477905,2.8939675539732,-28.4790945053101,
9.96,2.84,1,1,2,1,1,-5.5169931256933,-1.37812457978725,-5.52191185908019,-28.5430383682251,2.82277036458254,-28.5227823257446,
10,2.88,1,1,2,1,1,-5.51681475879797,-1.48847699165344,-5.52173304514974,-28.5807287693024,2.74573396891356,-28.5604619979858,
10.04,2.92,1,1,2,1,1,-5.51663639190264,-1.67190097272396,-5.52155467825412,-28.6268627643585,2.68639829009771,-28.6066281795502,
10.08,2.96,1,1,2,1,1,-5.51645757797249,-1.83180905878544,-5.52137631135849,-28.6684155464172,2.6176692917943,-28.6481595039368,
10.12,3,1,1,2,1,1,-5.51627921107716,-1.92664563655853,-5.52119749742804,-28.7152791023254,2.56077330559492,-28.6949908733368,
10.16,3.04,1,1,2,1,1,-5.51610039714701,-2.00690701603889,-5.52101913053241,-28.7558126449585,2.51863934099674,-28.7355244159698,
10.2,3.08,1,1,2,1,1,-5.51590012554523,-2.0550936460495,-5.5208358462537,-28.7995916604996,2.4562131613493,-28.779319524765,
10.24,3.12,1,1,2,1,1,-5.5154539847895,-2.24418938159943,-5.5204800065321,-28.8412410020828,2.38781869411469,-28.8209903240204,
